Tiempo (s)	Voltaje (V)
0.000000	2.587182
0.001000	2.575238
0.002000	2.566200
0.003000	2.561680
0.004000	2.562649
0.005000	2.565877
0.006000	2.565554
0.007000	2.558452
0.008000	2.548123
0.009000	2.533596
0.010000	2.520684
0.011000	2.515842
0.012000	2.521007
0.013000	2.538115
0.014000	2.566523
0.015000	2.596221
0.016000	2.618172
0.017000	2.635281
0.018000	2.641737
0.019000	2.633989
0.020000	2.621077
0.021000	2.606228
0.022000	2.596544
0.023000	2.593316
0.024000	2.596221
0.025000	2.601709
0.026000	2.609779
0.027000	2.618172
0.028000	2.614621
0.029000	2.603323
0.030000	2.587182
0.031000	2.572333
0.032000	2.564263
0.033000	2.562649
0.034000	2.568459
0.035000	2.579435
0.036000	2.588796
0.037000	2.588151
0.038000	2.577821
0.039000	2.562649
0.040000	2.549414
0.041000	2.542312
0.042000	2.542635
0.043000	2.548445
0.044000	2.557484
0.045000	2.562003
0.046000	2.560066
0.047000	2.558775
0.048000	2.563294
0.049000	2.567814
0.050000	2.573624
0.051000	2.574270
0.052000	2.568782
0.053000	2.562326
0.054000	2.561358
0.055000	2.564263
0.056000	2.565231
0.057000	2.561680
0.058000	2.550382
0.059000	2.534565
0.060000	2.518747
0.061000	2.512291
0.062000	2.518747
0.063000	2.529400
0.064000	2.540052
0.065000	2.543603
0.066000	2.537147
0.067000	2.529077
0.068000	2.516165
0.069000	2.501315
0.070000	2.486466
0.071000	2.473877
0.072000	2.467421
0.073000	2.462256
0.074000	2.458705
0.075000	2.459028
0.076000	2.464838
0.077000	2.475491
0.078000	2.485821
0.079000	2.496150
0.080000	2.501315
0.081000	2.506158
0.082000	2.509386
0.083000	2.515842
0.084000	2.522298
0.085000	2.531659
0.086000	2.540375
0.087000	2.548445
0.088000	2.556516
0.089000	2.570396
0.090000	2.586214
0.091000	2.596866
0.092000	2.597512
0.093000	2.589765
0.094000	2.581694
0.095000	2.575561
0.096000	2.571042
0.097000	2.568782
0.098000	2.567168
0.099000	2.569751
0.100000	2.577175
0.101000	2.583309
0.102000	2.591056
0.103000	2.598158
0.104000	2.603000
0.105000	2.608165
0.106000	2.612684
0.107000	2.611393
0.108000	2.595252
0.109000	2.567168
0.110000	2.531337
0.111000	2.495828
0.112000	2.464515
0.113000	2.439659
0.114000	2.422228
0.115000	2.417063
0.116000	2.420291
0.117000	2.436431
0.118000	2.458705
0.119000	2.479042
0.120000	2.501638
0.121000	2.522621
0.122000	2.540698
0.123000	2.556516
0.124000	2.569428
0.125000	2.581694
0.126000	2.593638
0.127000	2.599126
0.128000	2.594607
0.129000	2.581049
0.130000	2.561035
0.131000	2.537470
0.132000	2.515519
0.133000	2.500670
0.134000	2.495828
0.135000	2.501961
0.136000	2.519070
0.137000	2.541021
0.138000	2.557484
0.139000	2.565554
0.140000	2.564586
0.141000	2.563294
0.142000	2.561358
0.143000	2.561680
0.144000	2.559098
0.145000	2.555547
0.146000	2.553287
0.147000	2.549091
0.148000	2.542312
0.149000	2.531982
0.150000	2.523912
0.151000	2.520684
0.152000	2.523589
0.153000	2.527786
0.154000	2.536824
0.155000	2.553287
0.156000	2.574916
0.157000	2.596866
0.158000	2.619140
0.159000	2.642059
0.160000	2.663688
0.161000	2.680151
0.162000	2.684024
0.163000	2.674340
0.164000	2.662719
0.165000	2.654003
0.166000	2.639154
0.167000	2.615589
0.168000	2.590733
0.169000	2.576852
0.170000	2.574593
0.171000	2.583309
0.172000	2.594930
0.173000	2.603323
0.174000	2.608488
0.175000	2.616235
0.176000	2.628502
0.177000	2.639800
0.178000	2.645933
0.179000	2.642382
0.180000	2.632375
0.181000	2.618495
0.182000	2.605905
0.183000	2.594284
0.184000	2.576852
0.185000	2.555547
0.186000	2.538115
0.187000	2.527786
0.188000	2.521329
0.189000	2.519070
0.190000	2.524880
0.191000	2.540052
0.192000	2.554901
0.193000	2.565231
0.194000	2.575884
0.195000	2.585891
0.196000	2.595898
0.197000	2.601386
0.198000	2.602677
0.199000	2.605582
0.200000	2.614298
0.201000	2.622368
0.202000	2.626565
0.203000	2.628179
0.204000	2.626242
0.205000	2.632375
0.206000	2.639800
0.207000	2.642705
0.208000	2.635926
0.209000	2.627210
0.210000	2.621400
0.211000	2.623014
0.212000	2.620109
0.213000	2.605259
0.214000	2.592670
0.215000	2.586859
0.216000	2.585245
0.217000	2.590410
0.218000	2.604291
0.219000	2.619786
0.220000	2.630761
0.221000	2.636249
0.222000	2.645288
0.223000	2.654003
0.224000	2.663365
0.225000	2.659491
0.226000	2.638831
0.227000	2.609779
0.228000	2.582017
0.229000	2.561358
0.230000	2.550705
0.231000	2.547800
0.232000	2.548123
0.233000	2.543926
0.234000	2.531337
0.235000	2.512614
0.236000	2.500993
0.237000	2.504543
0.238000	2.519393
0.239000	2.541989
0.240000	2.567491
0.241000	2.589119
0.242000	2.607196
0.243000	2.611070
0.244000	2.607196
0.245000	2.599449
0.246000	2.577821
0.247000	2.538438
0.248000	2.508417
0.249000	2.507772
0.250000	2.512291
0.251000	2.501961
0.252000	2.486143
0.253000	2.475168
0.254000	2.463870
0.255000	2.448052
0.256000	2.432880
0.257000	2.423842
0.258000	2.413835
0.259000	2.406733
0.260000	2.401245
0.261000	2.400599
0.262000	2.400922
0.263000	2.402214
0.264000	2.404796
0.265000	2.412543
0.266000	2.422550
0.267000	2.429329
0.268000	2.441596
0.269000	2.456122
0.270000	2.468389
0.271000	2.473554
0.272000	2.476136
0.273000	2.479687
0.274000	2.487112
0.275000	2.496150
0.276000	2.491954
0.277000	2.473554
0.278000	2.446761
0.279000	2.416740
0.280000	2.382845
0.281000	2.351210
0.282000	2.328936
0.283000	2.312150
0.284000	2.300529
0.285000	2.288908
0.286000	2.284066
0.287000	2.290522
0.288000	2.304403
0.289000	2.322157
0.290000	2.346368
0.291000	2.376066
0.292000	2.395435
0.293000	2.402536
0.294000	2.403828
0.295000	2.408992
0.296000	2.417063
0.297000	2.425133
0.298000	2.435140
0.299000	2.447084
0.300000	2.454831
0.301000	2.447729
0.302000	2.433203
0.303000	2.421582
0.304000	2.417063
0.305000	2.421582
0.306000	2.434171
0.307000	2.453540
0.308000	2.467421
0.309000	2.468389
0.310000	2.455477
0.311000	2.424164
0.312000	2.379617
0.313000	2.351533
0.314000	2.355406
0.315000	2.373806
0.316000	2.391884
0.317000	2.407056
0.318000	2.427715
0.319000	2.457091
0.320000	2.481947
0.321000	2.494536
0.322000	2.500024
0.323000	2.500024
0.324000	2.489372
0.325000	2.468712
0.326000	2.448052
0.327000	2.438368
0.328000	2.450957
0.329000	2.477105
0.330000	2.491308
0.331000	2.488726
0.332000	2.480333
0.333000	2.482270
0.334000	2.499701
0.335000	2.517779
0.336000	2.524880
0.337000	2.523589
0.338000	2.504543
0.339000	2.470972
0.340000	2.438368
0.341000	2.418999
0.342000	2.417708
0.343000	2.428038
0.344000	2.448052
0.345000	2.467743
0.346000	2.472586
0.347000	2.459028
0.348000	2.433526
0.349000	2.425778
0.350000	2.441273
0.351000	2.467098
0.352000	2.494214
0.353000	2.523266
0.354000	2.543603
0.355000	2.557161
0.356000	2.559098
0.357000	2.556516
0.358000	2.573301
0.359000	2.611393
0.360000	2.652389
0.361000	2.686607
0.362000	2.709849
0.363000	2.726958
0.364000	2.731154
0.365000	2.712754
0.366000	2.696937
0.367000	2.693386
0.368000	2.691126
0.369000	2.675631
0.370000	2.644319
0.371000	2.605259
0.372000	2.554901
0.373000	2.492600
0.374000	2.429975
0.375000	2.376712
0.376000	2.344754
0.377000	2.335070
0.378000	2.339589
0.379000	2.352178
0.380000	2.366705
0.381000	2.393821
0.382000	2.428038
0.383000	2.451280
0.384000	2.465484
0.385000	2.487112
0.386000	2.525526
0.387000	2.567491
0.388000	2.606873
0.389000	2.646579
0.390000	2.701133
0.391000	2.771828
0.392000	2.842523
0.393000	2.912572
0.394000	2.978748
0.395000	3.025555
0.396000	3.054285
0.397000	3.056867
0.398000	3.017485
0.399000	2.955183
0.400000	2.867702
0.401000	2.769568
0.402000	2.703393
0.403000	2.675954
0.404000	2.685316
0.405000	2.721470
0.406000	2.753105
0.407000	2.743421
0.408000	2.703393
0.409000	2.659491
0.410000	2.631084
0.411000	2.621400
0.412000	2.613975
0.413000	2.605582
0.414000	2.600740
0.415000	2.604291
0.416000	2.620109
0.417000	2.635926
0.418000	2.654649
0.419000	2.675954
0.420000	2.696937
0.421000	2.707267
0.422000	2.699842
0.423000	2.695646
0.424000	2.696291
0.425000	2.702425
0.426000	2.706944
0.427000	2.708881
0.428000	2.716628
0.429000	2.736965
0.430000	2.767309
0.431000	2.787000
0.432000	2.800235
0.433000	2.823477
0.434000	2.847365
0.435000	2.858018
0.436000	2.838326
0.437000	2.778607
0.438000	2.694354
0.439000	2.609133
0.440000	2.538761
0.441000	2.494536
0.442000	2.484852
0.443000	2.505512
0.444000	2.543280
0.445000	2.586537
0.446000	2.635281
0.447000	2.694677
0.448000	2.756333
0.449000	2.805077
0.450000	2.834776
0.451000	2.847688
0.452000	2.851562
0.453000	2.849948
0.454000	2.828319
0.455000	2.793779
0.456000	2.762467
0.457000	2.739225
0.458000	2.733737
0.459000	2.756656
0.460000	2.798298
0.461000	2.841555
0.462000	2.895463
0.463000	2.962285
0.464000	3.030397
0.465000	3.071071
0.466000	3.081723
0.467000	3.081401
0.468000	3.052025
0.469000	2.991014
0.470000	2.914832
0.471000	2.839618
0.472000	2.767954
0.473000	2.691126
0.474000	2.608810
0.475000	2.539407
0.476000	2.486466
0.477000	2.461287
0.478000	2.490017
0.479000	2.555547
0.480000	2.625596
0.481000	2.695646
0.482000	2.770537
0.483000	2.851562
0.484000	2.909990
0.485000	2.926130
0.486000	2.914509
0.487000	2.903211
0.488000	2.900951
0.489000	2.902888
0.490000	2.897077
0.491000	2.856726
0.492000	2.805400
0.493000	2.774733
0.494000	2.764081
0.495000	2.775379
0.496000	2.807983
0.497000	2.842200
0.498000	2.867702
0.499000	2.879323
0.500000	2.861569
0.501000	2.820249
0.502000	2.779253
0.503000	2.747618
0.504000	2.739225
0.505000	2.751168
0.506000	2.778284
0.507000	2.804754
0.508000	2.827028
0.509000	2.843169
0.510000	2.843491
0.511000	2.828965
0.512000	2.804109
0.513000	2.769568
0.514000	2.727603
0.515000	2.686607
0.516000	2.656909
0.517000	2.637540
0.518000	2.618817
0.519000	2.593638
0.520000	2.571687
0.521000	2.553610
0.522000	2.544572
0.523000	2.545540
0.524000	2.544249
0.525000	2.542958
0.526000	2.549737
0.527000	2.568137
0.528000	2.598803
0.529000	2.635281
0.530000	2.660137
0.531000	2.684993
0.532000	2.714368
0.533000	2.743098
0.534000	2.775056
0.535000	2.803786
0.536000	2.824123
0.537000	2.838004
0.538000	2.836712
0.539000	2.827028
0.540000	2.812502
0.541000	2.786354
0.542000	2.757625
0.543000	2.732446
0.544000	2.723730
0.545000	2.729863
0.546000	2.741484
0.547000	2.750200
0.548000	2.750523
0.549000	2.744712
0.550000	2.728249
0.551000	2.710495
0.552000	2.699842
0.553000	2.690803
0.554000	2.679505
0.555000	2.664656
0.556000	2.652389
0.557000	2.643351
0.558000	2.635281
0.559000	2.633021
0.560000	2.640768
0.561000	2.650775
0.562000	2.656586
0.563000	2.661428
0.564000	2.669175
0.565000	2.679182
0.566000	2.692095
0.567000	2.704361
0.568000	2.712109
0.569000	2.718565
0.570000	2.723730
0.571000	2.727281
0.572000	2.727603
0.573000	2.726635
0.574000	2.726635
0.575000	2.725989
0.576000	2.723730
0.577000	2.718242
0.578000	2.715660
0.579000	2.713077
0.580000	2.710495
0.581000	2.706298
0.582000	2.701456
0.583000	2.699196
0.584000	2.700488
0.585000	2.703070
0.586000	2.704684
0.587000	2.704684
0.588000	2.703393
0.589000	2.700488
0.590000	2.696291
0.591000	2.697582
0.592000	2.702102
0.593000	2.715014
0.594000	2.728895
0.595000	2.737611
0.596000	2.737288
0.597000	2.730186
0.598000	2.725989
0.599000	2.725344
0.600000	2.731154
0.601000	2.739547
0.602000	2.747940
0.603000	2.755042
0.604000	2.754719
0.605000	2.756979
0.606000	2.766018
0.607000	2.779253
0.608000	2.787323
0.609000	2.790874
0.610000	2.788614
0.611000	2.778607
0.612000	2.764081
0.613000	2.754074
0.614000	2.753751
0.615000	2.763112
0.616000	2.773442
0.617000	2.783126
0.618000	2.790551
0.619000	2.786677
0.620000	2.776670
0.621000	2.763112
0.622000	2.751491
0.623000	2.735996
0.624000	2.720825
0.625000	2.708558
0.626000	2.699196
0.627000	2.689189
0.628000	2.677246
0.629000	2.664656
0.630000	2.656263
0.631000	2.657554
0.632000	2.672726
0.633000	2.694032
0.634000	2.719533
0.635000	2.740839
0.636000	2.757625
0.637000	2.771183
0.638000	2.778930
0.639000	2.780221
0.640000	2.770537
0.641000	2.753428
0.642000	2.734705
0.643000	2.716305
0.644000	2.700488
0.645000	2.692095
0.646000	2.689835
0.647000	2.691772
0.648000	2.694032
0.649000	2.693709
0.650000	2.686930
0.651000	2.675309
0.652000	2.666593
0.653000	2.663042
0.654000	2.662396
0.655000	2.662719
0.656000	2.665302
0.657000	2.670789
0.658000	2.677891
0.659000	2.684670
0.660000	2.690803
0.661000	2.696291
0.662000	2.699842
0.663000	2.701133
0.664000	2.702747
0.665000	2.705975
0.666000	2.712109
0.667000	2.716628
0.668000	2.718565
0.669000	2.718888
0.670000	2.720502
0.671000	2.720179
0.672000	2.717596
0.673000	2.714046
0.674000	2.711140
0.675000	2.709203
0.676000	2.704684
0.677000	2.698874
0.678000	2.692417
0.679000	2.687898
0.680000	2.686607
0.681000	2.686607
0.682000	2.689512
0.683000	2.692095
0.684000	2.693709
0.685000	2.692095
0.686000	2.688544
0.687000	2.686284
0.688000	2.684670
0.689000	2.683379
0.690000	2.684347
0.691000	2.682410
0.692000	2.672403
0.693000	2.660460
0.694000	2.654326
0.695000	2.650775
0.696000	2.651421
0.697000	2.659814
0.698000	2.670144
0.699000	2.674986
0.700000	2.674986
0.701000	2.672081
0.702000	2.673049
0.703000	2.679505
0.704000	2.684670
0.705000	2.687898
0.706000	2.686607
0.707000	2.681765
0.708000	2.678214
0.709000	2.682733
0.710000	2.694354
0.711000	2.701779
0.712000	2.708235
0.713000	2.712754
0.714000	2.717274
0.715000	2.719856
0.716000	2.718565
0.717000	2.717596
0.718000	2.714046
0.719000	2.708235
0.720000	2.697582
0.721000	2.679828
0.722000	2.657877
0.723000	2.632698
0.724000	2.611070
0.725000	2.592993
0.726000	2.577498
0.727000	2.567814
0.728000	2.556838
0.729000	2.547800
0.730000	2.543280
0.731000	2.539730
0.732000	2.539084
0.733000	2.537470
0.734000	2.537793
0.735000	2.540375
0.736000	2.541989
0.737000	2.542312
0.738000	2.544572
0.739000	2.550705
0.740000	2.560712
0.741000	2.572010
0.742000	2.581694
0.743000	2.584600
0.744000	2.585568
0.745000	2.582663
0.746000	2.570719
0.747000	2.558452
0.748000	2.550382
0.749000	2.549091
0.750000	2.548445
0.751000	2.546508
0.752000	2.543926
0.753000	2.542635
0.754000	2.542312
0.755000	2.546508
0.756000	2.552642
0.757000	2.558452
0.758000	2.556838
0.759000	2.547477
0.760000	2.530045
0.761000	2.508417
0.762000	2.489694
0.763000	2.471940
0.764000	2.458059
0.765000	2.445793
0.766000	2.434817
0.767000	2.424164
0.768000	2.415449
0.769000	2.408347
0.770000	2.402536
0.771000	2.398017
0.772000	2.394789
0.773000	2.392206
0.774000	2.389947
0.775000	2.390270
0.776000	2.390915
0.777000	2.393175
0.778000	2.396080
0.779000	2.401568
0.780000	2.410284
0.781000	2.418031
0.782000	2.428361
0.783000	2.439982
0.784000	2.447084
0.785000	2.454186
0.786000	2.464193
0.787000	2.473231
0.788000	2.480333
0.789000	2.478073
0.790000	2.468066
0.791000	2.448052
0.792000	2.425778
0.793000	2.408992
0.794000	2.401568
0.795000	2.401568
0.796000	2.405764
0.797000	2.412543
0.798000	2.418677
0.799000	2.425778
0.800000	2.430621
0.801000	2.431266
0.802000	2.432557
0.803000	2.440628
0.804000	2.448698
0.805000	2.454508
0.806000	2.451280
0.807000	2.434494
0.808000	2.404473
0.809000	2.368319
0.810000	2.333133
0.811000	2.305694
0.812000	2.284389
0.813000	2.270508
0.814000	2.257596
0.815000	2.250171
0.816000	2.246943
0.817000	2.246620
0.818000	2.249848
0.819000	2.258887
0.820000	2.275673
0.821000	2.296978
0.822000	2.312796
0.823000	2.317315
0.824000	2.316024
0.825000	2.314410
0.826000	2.312796
0.827000	2.314087
0.828000	2.313764
0.829000	2.311182
0.830000	2.308277
0.831000	2.304403
0.832000	2.300206
0.833000	2.296978
0.834000	2.296010
0.835000	2.298592
0.836000	2.307308
0.837000	2.317638
0.838000	2.326999
0.839000	2.331519
0.840000	2.332164
0.841000	2.329582
0.842000	2.325708
0.843000	2.321512
0.844000	2.315055
0.845000	2.306340
0.846000	2.299884
0.847000	2.298269
0.848000	2.300852
0.849000	2.305694
0.850000	2.310859
0.851000	2.316347
0.852000	2.322157
0.853000	2.330873
0.854000	2.338298
0.855000	2.343463
0.856000	2.341526
0.857000	2.332810
0.858000	2.322157
0.859000	2.309568
0.860000	2.297947
0.861000	2.289876
0.862000	2.285357
0.863000	2.281483
0.864000	2.279224
0.865000	2.280515
0.866000	2.281161
0.867000	2.284712
0.868000	2.289876
0.869000	2.293750
0.870000	2.295364
0.871000	2.298269
0.872000	2.306017
0.873000	2.318284
0.874000	2.329905
0.875000	2.338298
0.876000	2.341203
0.877000	2.344754
0.878000	2.348627
0.879000	2.354115
0.880000	2.352178
0.881000	2.340234
0.882000	2.321834
0.883000	2.303757
0.884000	2.288585
0.885000	2.278901
0.886000	2.280192
0.887000	2.287940
0.888000	2.297624
0.889000	2.308599
0.890000	2.326999
0.891000	2.350564
0.892000	2.372838
0.893000	2.390915
0.894000	2.398663
0.895000	2.395112
0.896000	2.385428
0.897000	2.368642
0.898000	2.346368
0.899000	2.324740
0.900000	2.302466
0.901000	2.281483
0.902000	2.263083
0.903000	2.249848
0.904000	2.239841
0.905000	2.234999
0.906000	2.236613
0.907000	2.245006
0.908000	2.253722
0.909000	2.264375
0.910000	2.275996
0.911000	2.285680
0.912000	2.286971
0.913000	2.282452
0.914000	2.277287
0.915000	2.270185
0.916000	2.261469
0.917000	2.252754
0.918000	2.243715
0.919000	2.237259
0.920000	2.234676
0.921000	2.238873
0.922000	2.249203
0.923000	2.263083
0.924000	2.278901
0.925000	2.295364
0.926000	2.312473
0.927000	2.330550
0.928000	2.342817
0.929000	2.348305
0.930000	2.350887
0.931000	2.352501
0.932000	2.345399
0.933000	2.333778
0.934000	2.321834
0.935000	2.315701
0.936000	2.318929
0.937000	2.322157
0.938000	2.324417
0.939000	2.327322
0.940000	2.334747
0.941000	2.346045
0.942000	2.358957
0.943000	2.369287
0.944000	2.370901
0.945000	2.365091
0.946000	2.353147
0.947000	2.338943
0.948000	2.323126
0.949000	2.307308
0.950000	2.294073
0.951000	2.288262
0.952000	2.289554
0.953000	2.293750
0.954000	2.293427
0.955000	2.291813
0.956000	2.287617
0.957000	2.287617
0.958000	2.294719
0.959000	2.309568
0.960000	2.327322
0.961000	2.346045
0.962000	2.363477
0.963000	2.383813
0.964000	2.406410
0.965000	2.413189
0.966000	2.404796
0.967000	2.390270
0.968000	2.374775
0.969000	2.356698
0.970000	2.338620
0.971000	2.325385
0.972000	2.316670
0.973000	2.312473
0.974000	2.312796
0.975000	2.318284
0.976000	2.331519
0.977000	2.350564
0.978000	2.371224
0.979000	2.387687
0.980000	2.401568
0.981000	2.408670
0.982000	2.419322
0.983000	2.432557
0.984000	2.444178
0.985000	2.447084
0.986000	2.434171
0.987000	2.410607
0.988000	2.382845
0.989000	2.353470
0.990000	2.326999
0.991000	2.305371
0.992000	2.289554
0.993000	2.277287
0.994000	2.267926
0.995000	2.269862
0.996000	2.283743
0.997000	2.304726
0.998000	2.332164
0.999000	2.359603
1.000000	2.377357
1.001000	2.383813
1.002000	2.383168
1.003000	2.381877
1.004000	2.381877
1.005000	2.384782
1.006000	2.391561
1.007000	2.392206
1.008000	2.384459
1.009000	2.371547
1.010000	2.355406
1.011000	2.337652
1.012000	2.325708
1.013000	2.324417
1.014000	2.326677
1.015000	2.328613
1.016000	2.330873
1.017000	2.335070
1.018000	2.342494
1.019000	2.344108
1.020000	2.335070
1.021000	2.320543
1.022000	2.307631
1.023000	2.299561
1.024000	2.297947
1.025000	2.296978
1.026000	2.295364
1.027000	2.296010
1.028000	2.301820
1.029000	2.315701
1.030000	2.333456
1.031000	2.345399
1.032000	2.348627
1.033000	2.351533
1.034000	2.359926
1.035000	2.372192
1.036000	2.389301
1.037000	2.405442
1.038000	2.415449
1.039000	2.419322
1.040000	2.414803
1.041000	2.402214
1.042000	2.386073
1.043000	2.361217
1.044000	2.331841
1.045000	2.305371
1.046000	2.284712
1.047000	2.271476
1.048000	2.265666
1.049000	2.267280
1.050000	2.274382
1.051000	2.285357
1.052000	2.304726
1.053000	2.331841
1.054000	2.354438
1.055000	2.369287
1.056000	2.379617
1.057000	2.385750
1.058000	2.392206
1.059000	2.396080
1.060000	2.397371
1.061000	2.392206
1.062000	2.381554
1.063000	2.369287
1.064000	2.359926
1.065000	2.356375
1.066000	2.358957
1.067000	2.366382
1.068000	2.376712
1.069000	2.388010
1.070000	2.398017
1.071000	2.402536
1.072000	2.397371
1.073000	2.387687
1.074000	2.374452
1.075000	2.360571
1.076000	2.348627
1.077000	2.336684
1.078000	2.331519
1.079000	2.332164
1.080000	2.341848
1.081000	2.357666
1.082000	2.374775
1.083000	2.389947
1.084000	2.404150
1.085000	2.409638
1.086000	2.408347
1.087000	2.404473
1.088000	2.398340
1.089000	2.390270
1.090000	2.387687
1.091000	2.391238
1.092000	2.397694
1.093000	2.403505
1.094000	2.405764
1.095000	2.404473
1.096000	2.401245
1.097000	2.393498
1.098000	2.387364
1.099000	2.381231
1.100000	2.372838
1.101000	2.363799
1.102000	2.357020
1.103000	2.349273
1.104000	2.340557
1.105000	2.335070
1.106000	2.336684
1.107000	2.346691
1.108000	2.361863
1.109000	2.376066
1.110000	2.386719
1.111000	2.394466
1.112000	2.402859
1.113000	2.401891
1.114000	2.395112
1.115000	2.392529
1.116000	2.400277
1.117000	2.414803
1.118000	2.431912
1.119000	2.449666
1.120000	2.458382
1.121000	2.453217
1.122000	2.433203
1.123000	2.408670
1.124000	2.387687
1.125000	2.380585
1.126000	2.387042
1.127000	2.391884
1.128000	2.396726
1.129000	2.405764
1.130000	2.422228
1.131000	2.434171
1.132000	2.442887
1.133000	2.440305
1.134000	2.428361
1.135000	2.415449
1.136000	2.405442
1.137000	2.402214
1.138000	2.401891
1.139000	2.402214
1.140000	2.402536
1.141000	2.402536
1.142000	2.405764
1.143000	2.410284
1.144000	2.411575
1.145000	2.411252
1.146000	2.406733
1.147000	2.405764
1.148000	2.416740
1.149000	2.439336
1.150000	2.470649
1.151000	2.503252
1.152000	2.534242
1.153000	2.558452
1.154000	2.574270
1.155000	2.577821
1.156000	2.572010
1.157000	2.558130
1.158000	2.537793
1.159000	2.512614
1.160000	2.489372
1.161000	2.475814
1.162000	2.480979
1.163000	2.490986
1.164000	2.494859
1.165000	2.489372
1.166000	2.476782
1.167000	2.464515
1.168000	2.449021
1.169000	2.427392
1.170000	2.406087
1.171000	2.388978
1.172000	2.381877
1.173000	2.383168
1.174000	2.385428
1.175000	2.388978
1.176000	2.397049
1.177000	2.404796
1.178000	2.413835
1.179000	2.423842
1.180000	2.431589
1.181000	2.435463
1.182000	2.435463
1.183000	2.435140
1.184000	2.436431
1.185000	2.438368
1.186000	2.444501
1.187000	2.459673
1.188000	2.479687
1.189000	2.507772
1.190000	2.541344
1.191000	2.567491
1.192000	2.587505
1.193000	2.598803
1.194000	2.592993
1.195000	2.575238
1.196000	2.556516
1.197000	2.537147
1.198000	2.519393
1.199000	2.514873
1.200000	2.523266
1.201000	2.533596
1.202000	2.540375
1.203000	2.539084
1.204000	2.526494
1.205000	2.505835
1.206000	2.478396
1.207000	2.451603
1.208000	2.428361
1.209000	2.402536
1.210000	2.373161
1.211000	2.354115
1.212000	2.348627
1.213000	2.355406
1.214000	2.370578
1.215000	2.392852
1.216000	2.424810
1.217000	2.466452
1.218000	2.509063
1.219000	2.537470
1.220000	2.550382
1.221000	2.562326
1.222000	2.579112
1.223000	2.599126
1.224000	2.617849
1.225000	2.634312
1.226000	2.637217
1.227000	2.628502
1.228000	2.626242
1.229000	2.653358
1.230000	2.693386
1.231000	2.721147
1.232000	2.727603
1.233000	2.718565
1.234000	2.703070
1.235000	2.683379
1.236000	2.658845
1.237000	2.628179
1.238000	2.597512
1.239000	2.579112
1.240000	2.580726
1.241000	2.589119
1.242000	2.598803
1.243000	2.611393
1.244000	2.622368
1.245000	2.638831
1.246000	2.658200
1.247000	2.680796
1.248000	2.702425
1.249000	2.712754
1.250000	2.701456
1.251000	2.674017
1.252000	2.655617
1.253000	2.657554
1.254000	2.662074
1.255000	2.668530
1.256000	2.675954
1.257000	2.673695
1.258000	2.661428
1.259000	2.632698
1.260000	2.585891
1.261000	2.536824
1.262000	2.496473
1.263000	2.473231
1.264000	2.455800
1.265000	2.440628
1.266000	2.437722
1.267000	2.444824
1.268000	2.453540
1.269000	2.465161
1.270000	2.483561
1.271000	2.522298
1.272000	2.568459
1.273000	2.598480
1.274000	2.607842
1.275000	2.620109
1.276000	2.646579
1.277000	2.687898
1.278000	2.743744
1.279000	2.807014
1.280000	2.855758
1.281000	2.865119
1.282000	2.845428
1.283000	2.820895
1.284000	2.809274
1.285000	2.813147
1.286000	2.818635
1.287000	2.830579
1.288000	2.836712
1.289000	2.837681
1.290000	2.863183
1.291000	2.898369
1.292000	2.913218
1.293000	2.904825
1.294000	2.883197
1.295000	2.848334
1.296000	2.810242
1.297000	2.766986
1.298000	2.710172
1.299000	2.641737
1.300000	2.581694
1.301000	2.540375
1.302000	2.501315
1.303000	2.460642
1.304000	2.422228
1.305000	2.392852
1.306000	2.382845
1.307000	2.424164
1.308000	2.506480
1.309000	2.599449
1.310000	2.677891
1.311000	2.735028
1.312000	2.775702
1.313000	2.802495
1.314000	2.827028
1.315000	2.858986
1.316000	2.890621
1.317000	2.918060
1.318000	2.941625
1.319000	2.963899
1.320000	2.983913
1.321000	2.988432
1.322000	2.958734
1.323000	2.921611
1.324000	2.880291
1.325000	2.822832
1.326000	2.750846
1.327000	2.674017
1.328000	2.605259
1.329000	2.568782
1.330000	2.550705
1.331000	2.533919
1.332000	2.511645
1.333000	2.492922
1.334000	2.485175
1.335000	2.495828
1.336000	2.523912
1.337000	2.560066
1.338000	2.600095
1.339000	2.654326
1.340000	2.730186
1.341000	2.808951
1.342000	2.878677
1.343000	2.959056
1.344000	3.030397
1.345000	3.062032
1.346000	3.057513
1.347000	3.041372
1.348000	3.032334
1.349000	2.998439
1.350000	2.929035
1.351000	2.829288
1.352000	2.740193
1.353000	2.691772
1.354000	2.686607
1.355000	2.700810
1.356000	2.719210
1.357000	2.731800
1.358000	2.735351
1.359000	2.738256
1.360000	2.758916
1.361000	2.794747
1.362000	2.839295
1.363000	2.882228
1.364000	2.920320
1.365000	2.940334
1.366000	2.951955
1.367000	2.969064
1.368000	2.971646
1.369000	2.952923
1.370000	2.918383
1.371000	2.873512
1.372000	2.832193
1.373000	2.805723
1.374000	2.788937
1.375000	2.781835
1.376000	2.784095
1.377000	2.796361
1.378000	2.815084
1.379000	2.817021
1.380000	2.795070
1.381000	2.764404
1.382000	2.738579
1.383000	2.720179
1.384000	2.698874
1.385000	2.678214
1.386000	2.672081
1.387000	2.696937
1.388000	2.748586
1.389000	2.825091
1.390000	2.926776
1.391000	3.024909
1.392000	3.092053
1.393000	3.133050
1.394000	3.153387
1.395000	3.153387
1.396000	3.124657
1.397000	3.091730
1.398000	3.078818
1.399000	3.074944
1.400000	3.059127
1.401000	3.020390
1.402000	2.974874
1.403000	2.934846
1.404000	2.897400
1.405000	2.863828
1.406000	2.847042
1.407000	2.841232
1.408000	2.853498
1.409000	2.873190
1.410000	2.871898
1.411000	2.872221
1.412000	2.888684
1.413000	2.908699
1.414000	2.934523
1.415000	2.951309
1.416000	2.929681
1.417000	2.885779
1.418000	2.854467
1.419000	2.842523
1.420000	2.855435
1.421000	2.889653
1.422000	2.920965
1.423000	2.941625
1.424000	2.960671
1.425000	2.974228
1.426000	2.977134
1.427000	2.976488
1.428000	2.963576
1.429000	2.944530
1.430000	2.924839
1.431000	2.903534
1.432000	2.878032
1.433000	2.848979
1.434000	2.821863
1.435000	2.821218
1.436000	2.836067
1.437000	2.836067
1.438000	2.821863
1.439000	2.816053
1.440000	2.827997
1.441000	2.854144
1.442000	2.883842
1.443000	2.906116
1.444000	2.915155
1.445000	2.902888
1.446000	2.869639
1.447000	2.837681
1.448000	2.824123
1.449000	2.827028
1.450000	2.842200
1.451000	2.861569
1.452000	2.883197
1.453000	2.909344
1.454000	2.941948
1.455000	2.978425
1.456000	3.012320
1.457000	3.042664
1.458000	3.068165
1.459000	3.076558
1.460000	3.064615
1.461000	3.030074
1.462000	2.973583
1.463000	2.907084
1.464000	2.841555
1.465000	2.782804
1.466000	2.746004
1.467000	2.730832
1.468000	2.740516
1.469000	2.758593
1.470000	2.791842
1.471000	2.827674
1.472000	2.859309
1.473000	2.886102
1.474000	2.914832
1.475000	2.939042
1.476000	2.949372
1.477000	2.950663
1.478000	2.942916
1.479000	2.925484
1.480000	2.907730
1.481000	2.885134
1.482000	2.858018
1.483000	2.827997
1.484000	2.799267
1.485000	2.779253
1.486000	2.771828
1.487000	2.781512
1.488000	2.803786
1.489000	2.829288
1.490000	2.863183
1.491000	2.897400
1.492000	2.923225
1.493000	2.940011
1.494000	2.953569
1.495000	2.958088
1.496000	2.951955
1.497000	2.945821
1.498000	2.944853
1.499000	2.941948
1.500000	2.931618
1.501000	2.914186
1.502000	2.897077
1.503000	2.885456
1.504000	2.886425
1.505000	2.899014
1.506000	2.913863
1.507000	2.934846
1.508000	2.955506
1.509000	2.970355
1.510000	2.971969
1.511000	2.961962
1.512000	2.949695
1.513000	2.932586
1.514000	2.909667
1.515000	2.882551
1.516000	2.854790
1.517000	2.832839
1.518000	2.819604
1.519000	2.813793
1.520000	2.812502
1.521000	2.816053
1.522000	2.824446
1.523000	2.832839
1.524000	2.844460
1.525000	2.857372
1.526000	2.871253
1.527000	2.884488
1.528000	2.897077
1.529000	2.907730
1.530000	2.918383
1.531000	2.934523
1.532000	2.951309
1.533000	2.970355
1.534000	2.992951
1.535000	3.010383
1.536000	3.023295
1.537000	3.033625
1.538000	3.033302
1.539000	3.021036
1.540000	3.008446
1.541000	2.997148
1.542000	2.978425
1.543000	2.952600
1.544000	2.921288
1.545000	2.893204
1.546000	2.880614
1.547000	2.877063
1.548000	2.883520
1.549000	2.896109
1.550000	2.905470
1.551000	2.908699
1.552000	2.910635
1.553000	2.912572
1.554000	2.912895
1.555000	2.911927
1.556000	2.909021
1.557000	2.904179
1.558000	2.894818
1.559000	2.885456
1.560000	2.875772
1.561000	2.869639
1.562000	2.866411
1.563000	2.859632
1.564000	2.849948
1.565000	2.841555
1.566000	2.835421
1.567000	2.833484
1.568000	2.831870
1.569000	2.831548
1.570000	2.834776
1.571000	2.839941
1.572000	2.848656
1.573000	2.861891
1.574000	2.879969
1.575000	2.893527
1.576000	2.906439
1.577000	2.918383
1.578000	2.930004
1.579000	2.938720
1.580000	2.947435
1.581000	2.956797
1.582000	2.961316
1.583000	2.956797
1.584000	2.943885
1.585000	2.927421
1.586000	2.911604
1.587000	2.898369
1.588000	2.890298
1.589000	2.887716
1.590000	2.884488
1.591000	2.877063
1.592000	2.868670
1.593000	2.861246
1.594000	2.854467
1.595000	2.848011
1.596000	2.842846
1.597000	2.839941
1.598000	2.840263
1.599000	2.844460
1.600000	2.851562
1.601000	2.861246
1.602000	2.868025
1.603000	2.869639
1.604000	2.867056
1.605000	2.864151
1.606000	2.860923
1.607000	2.861569
1.608000	2.865765
1.609000	2.870930
1.610000	2.874481
1.611000	2.871898
1.612000	2.865119
1.613000	2.853176
1.614000	2.839295
1.615000	2.826383
1.616000	2.817021
1.617000	2.813793
1.618000	2.814116
1.619000	2.819604
1.620000	2.825737
1.621000	2.831870
1.622000	2.835744
1.623000	2.837358
1.624000	2.840586
1.625000	2.847688
1.626000	2.857372
1.627000	2.859632
1.628000	2.863828
1.629000	2.869962
1.630000	2.876418
1.631000	2.880291
1.632000	2.881583
1.633000	2.875127
1.634000	2.861891
1.635000	2.840263
1.636000	2.813793
1.637000	2.788614
1.638000	2.768600
1.639000	2.753428
1.640000	2.744712
1.641000	2.737933
1.642000	2.735028
1.643000	2.734060
1.644000	2.737611
1.645000	2.744712
1.646000	2.753428
1.647000	2.764404
1.648000	2.773442
1.649000	2.778607
1.650000	2.777639
1.651000	2.771828
1.652000	2.765372
1.653000	2.762144
1.654000	2.760530
1.655000	2.759239
1.656000	2.758270
1.657000	2.757625
1.658000	2.758916
1.659000	2.761821
1.660000	2.766663
1.661000	2.773119
1.662000	2.776670
1.663000	2.777316
1.664000	2.777639
1.665000	2.777961
1.666000	2.780544
1.667000	2.774733
1.668000	2.765049
1.669000	2.751168
1.670000	2.740839
1.671000	2.733737
1.672000	2.731154
1.673000	2.732446
1.674000	2.740193
1.675000	2.750523
1.676000	2.760853
1.677000	2.768600
1.678000	2.768277
1.679000	2.760853
1.680000	2.747618
1.681000	2.734382
1.682000	2.723730
1.683000	2.714691
1.684000	2.706944
1.685000	2.701779
1.686000	2.699842
1.687000	2.699842
1.688000	2.701456
1.689000	2.704039
1.690000	2.705007
1.691000	2.713400
1.692000	2.725667
1.693000	2.743744
1.694000	2.765695
1.695000	2.787323
1.696000	2.801526
1.697000	2.807014
1.698000	2.799912
1.699000	2.784418
1.700000	2.764081
1.701000	2.744067
1.702000	2.728249
1.703000	2.715660
1.704000	2.707589
1.705000	2.700488
1.706000	2.695000
1.707000	2.688221
1.708000	2.680796
1.709000	2.673695
1.710000	2.668207
1.711000	2.665947
1.712000	2.667561
1.713000	2.673695
1.714000	2.678860
1.715000	2.683702
1.716000	2.690481
1.717000	2.694677
1.718000	2.696614
1.719000	2.697260
1.720000	2.698228
1.721000	2.698228
1.722000	2.698874
1.723000	2.696937
1.724000	2.692740
1.725000	2.687898
1.726000	2.681765
1.727000	2.674340
1.728000	2.667884
1.729000	2.663688
1.730000	2.662719
1.731000	2.663365
1.732000	2.664333
1.733000	2.663688
1.734000	2.660782
1.735000	2.657231
1.736000	2.652067
1.737000	2.645933
1.738000	2.640123
1.739000	2.639154
1.740000	2.639477
1.741000	2.639800
1.742000	2.638831
1.743000	2.638186
1.744000	2.638186
1.745000	2.638831
1.746000	2.640123
1.747000	2.641091
1.748000	2.642382
1.749000	2.643674
1.750000	2.646902
1.751000	2.653681
1.752000	2.661105
1.753000	2.671112
1.754000	2.685316
1.755000	2.701779
1.756000	2.713723
1.757000	2.714691
1.758000	2.704684
1.759000	2.689835
1.760000	2.677246
1.761000	2.667238
1.762000	2.660782
1.763000	2.657231
1.764000	2.655295
1.765000	2.654003
1.766000	2.651744
1.767000	2.647547
1.768000	2.641414
1.769000	2.634635
1.770000	2.632698
1.771000	2.633666
1.772000	2.639154
1.773000	2.647547
1.774000	2.662396
1.775000	2.680796
1.776000	2.697582
1.777000	2.709526
1.778000	2.720179
1.779000	2.726312
1.780000	2.722116
1.781000	2.706298
1.782000	2.680796
1.783000	2.649807
1.784000	2.616235
1.785000	2.584600
1.786000	2.559421
1.787000	2.541666
1.788000	2.530368
1.789000	2.523589
1.790000	2.523266
1.791000	2.526172
1.792000	2.531659
1.793000	2.539084
1.794000	2.545863
1.795000	2.551673
1.796000	2.555870
1.797000	2.559098
1.798000	2.562326
1.799000	2.566845
1.800000	2.567168
1.801000	2.567814
1.802000	2.567491
1.803000	2.569105
1.804000	2.570396
1.805000	2.570719
1.806000	2.570073
1.807000	2.570719
1.808000	2.572010
1.809000	2.573301
1.810000	2.574270
1.811000	2.575561
1.812000	2.580080
1.813000	2.584600
1.814000	2.583954
1.815000	2.579112
1.816000	2.574593
1.817000	2.570396
1.818000	2.561035
1.819000	2.547800
1.820000	2.537147
1.821000	2.531659
1.822000	2.528754
1.823000	2.527786
1.824000	2.528431
1.825000	2.527786
1.826000	2.527140
1.827000	2.527463
1.828000	2.528108
1.829000	2.531014
1.830000	2.537147
1.831000	2.542312
1.832000	2.548445
1.833000	2.553610
1.834000	2.554256
1.835000	2.553933
1.836000	2.554579
1.837000	2.554901
1.838000	2.554256
1.839000	2.553610
1.840000	2.557484
1.841000	2.560712
1.842000	2.562003
1.843000	2.558775
1.844000	2.555547
1.845000	2.551996
1.846000	2.549091
1.847000	2.545217
1.848000	2.540052
1.849000	2.532951
1.850000	2.529077
1.851000	2.526172
1.852000	2.526817
1.853000	2.534565
1.854000	2.547154
1.855000	2.560066
1.856000	2.573301
1.857000	2.583631
1.858000	2.592670
1.859000	2.599449
1.860000	2.599772
1.861000	2.591379
1.862000	2.580080
1.863000	2.568459
1.864000	2.560066
1.865000	2.552965
1.866000	2.541666
1.867000	2.527463
1.868000	2.511645
1.869000	2.498087
1.870000	2.485498
1.871000	2.476782
1.872000	2.469035
1.873000	2.464193
1.874000	2.463870
1.875000	2.464838
1.876000	2.469035
1.877000	2.473231
1.878000	2.479687
1.879000	2.489049
1.880000	2.496473
1.881000	2.500993
1.882000	2.506158
1.883000	2.514551
1.884000	2.526172
1.885000	2.541021
1.886000	2.554901
1.887000	2.562003
1.888000	2.562003
1.889000	2.559421
1.890000	2.551996
1.891000	2.543926
1.892000	2.533919
1.893000	2.525849
1.894000	2.521329
1.895000	2.521007
1.896000	2.523912
1.897000	2.521329
1.898000	2.514551
1.899000	2.504543
1.900000	2.497119
1.901000	2.492922
1.902000	2.492600
1.903000	2.493245
1.904000	2.493245
1.905000	2.490986
1.906000	2.486466
1.907000	2.479365
1.908000	2.471940
1.909000	2.468712
1.910000	2.470972
1.911000	2.480656
1.912000	2.496473
1.913000	2.507449
1.914000	2.512614
1.915000	2.514551
1.916000	2.514873
1.917000	2.515196
1.918000	2.515519
1.919000	2.518747
1.920000	2.527463
1.921000	2.535856
1.922000	2.540052
1.923000	2.542312
1.924000	2.548123
1.925000	2.550382
1.926000	2.544894
1.927000	2.532305
1.928000	2.514228
1.929000	2.496796
1.930000	2.483561
1.931000	2.471617
1.932000	2.462901
1.933000	2.459028
1.934000	2.461287
1.935000	2.468389
1.936000	2.478073
1.937000	2.489049
1.938000	2.499701
1.939000	2.507772
1.940000	2.511000
1.941000	2.505512
1.942000	2.495828
1.943000	2.487112
1.944000	2.479042
1.945000	2.469680
1.946000	2.459996
1.947000	2.451603
1.948000	2.446115
1.949000	2.448375
1.950000	2.454831
1.951000	2.467098
1.952000	2.482270
1.953000	2.493245
1.954000	2.502929
1.955000	2.509708
1.956000	2.514228
1.957000	2.515519
1.958000	2.511645
1.959000	2.503575
1.960000	2.490986
1.961000	2.478719
1.962000	2.467421
1.963000	2.459996
1.964000	2.454186
1.965000	2.452571
1.966000	2.459996
1.967000	2.470003
1.968000	2.480979
1.969000	2.491631
1.970000	2.498733
1.971000	2.503575
1.972000	2.507772
1.973000	2.509708
1.974000	2.512936
1.975000	2.516487
1.976000	2.518101
1.977000	2.520684
1.978000	2.526817
1.979000	2.536179
1.980000	2.541989
1.981000	2.539730
1.982000	2.530368
1.983000	2.515842
1.984000	2.496796
1.985000	2.482593
1.986000	2.475814
1.987000	2.472263
1.988000	2.468712
1.989000	2.466129
1.990000	2.465484
1.991000	2.463224
1.992000	2.460319
1.993000	2.457091
1.994000	2.452894
1.995000	2.452894
1.996000	2.458059
1.997000	2.467098
1.998000	2.474845
1.999000	2.484207
2.000000	2.494859
2.001000	2.507449
2.002000	2.517456
2.003000	2.522621
2.004000	2.519393
2.005000	2.514551
2.006000	2.513259
2.007000	2.512291
2.008000	2.511000
2.009000	2.506803
2.010000	2.498733
2.011000	2.492277
2.012000	2.480010
2.013000	2.464193
2.014000	2.449989
2.015000	2.435785
2.016000	2.422550
2.017000	2.417708
2.018000	2.419322
2.019000	2.427070
2.020000	2.433849
2.021000	2.439336
2.022000	2.447407
2.023000	2.461287
2.024000	2.475168
2.025000	2.485175
2.026000	2.494859
2.027000	2.505189
2.028000	2.519070
2.029000	2.531014
2.030000	2.542635
2.031000	2.551996
2.032000	2.562003
2.033000	2.564908
2.034000	2.560389
2.035000	2.552319
2.036000	2.542635
2.037000	2.530368
2.038000	2.517456
2.039000	2.505189
2.040000	2.494214
2.041000	2.482915
2.042000	2.471617
2.043000	2.457091
2.044000	2.444824
2.045000	2.435140
2.046000	2.430943
2.047000	2.429975
2.048000	2.435463
2.049000	2.448698
2.050000	2.462901
2.051000	2.475814
2.052000	2.480656
2.053000	2.480010
2.054000	2.479365
2.055000	2.481624
2.056000	2.486143
2.057000	2.489049
2.058000	2.493891
2.059000	2.496796
2.060000	2.494859
2.061000	2.484529
2.062000	2.472263
2.063000	2.465484
2.064000	2.463224
2.065000	2.462901
2.066000	2.458705
2.067000	2.451603
2.068000	2.443533
2.069000	2.438691
2.070000	2.443210
2.071000	2.450957
2.072000	2.463870
2.073000	2.477428
2.074000	2.495182
2.075000	2.511000
2.076000	2.519070
2.077000	2.516810
2.078000	2.505189
2.079000	2.491631
2.080000	2.480979
2.081000	2.467743
2.082000	2.449343
2.083000	2.435463
2.084000	2.429007
2.085000	2.430943
2.086000	2.440950
2.087000	2.459350
2.088000	2.479687
2.089000	2.493891
2.090000	2.500024
2.091000	2.494214
2.092000	2.481947
2.093000	2.470003
2.094000	2.459996
2.095000	2.454186
2.096000	2.451603
2.097000	2.448375
2.098000	2.443533
2.099000	2.440305
2.100000	2.439014
2.101000	2.440305
2.102000	2.443856
2.103000	2.450635
2.104000	2.459028
2.105000	2.462901
2.106000	2.462901
2.107000	2.457736
2.108000	2.446761
2.109000	2.437722
2.110000	2.433203
2.111000	2.434171
2.112000	2.439659
2.113000	2.452894
2.114000	2.470326
2.115000	2.492600
2.116000	2.512614
2.117000	2.533273
2.118000	2.554901
2.119000	2.570396
2.120000	2.577821
2.121000	2.575238
2.122000	2.565554
2.123000	2.547800
2.124000	2.522944
2.125000	2.500993
2.126000	2.483238
2.127000	2.473554
2.128000	2.471617
2.129000	2.474200
2.130000	2.480010
2.131000	2.484207
2.132000	2.488726
2.133000	2.492600
2.134000	2.491631
2.135000	2.485498
2.136000	2.474845
2.137000	2.463547
2.138000	2.452571
2.139000	2.444178
2.140000	2.437077
2.141000	2.431912
2.142000	2.430621
2.143000	2.433849
2.144000	2.441919
2.145000	2.452249
2.146000	2.463224
2.147000	2.473231
2.148000	2.480979
2.149000	2.487435
2.150000	2.493245
2.151000	2.501638
2.152000	2.513259
2.153000	2.532305
2.154000	2.558775
2.155000	2.584600
2.156000	2.600417
2.157000	2.597189
2.158000	2.573624
2.159000	2.538115
2.160000	2.495182
2.161000	2.449666
2.162000	2.408024
2.163000	2.371870
2.164000	2.346691
2.165000	2.331196
2.166000	2.325385
2.167000	2.326999
2.168000	2.334424
2.169000	2.345722
2.170000	2.365413
2.171000	2.391238
2.172000	2.424164
2.173000	2.456445
2.174000	2.485498
2.175000	2.510354
2.176000	2.521975
2.177000	2.520038
2.178000	2.508740
2.179000	2.493245
2.180000	2.479365
2.181000	2.466129
2.182000	2.457414
2.183000	2.455154
2.184000	2.455800
2.185000	2.461610
2.186000	2.470649
2.187000	2.479042
2.188000	2.482915
2.189000	2.483238
2.190000	2.480656
2.191000	2.476459
2.192000	2.466775
2.193000	2.451603
2.194000	2.440950
2.195000	2.444178
2.196000	2.462256
2.197000	2.481947
2.198000	2.494536
2.199000	2.499701
2.200000	2.500024
2.201000	2.500670
2.202000	2.500024
2.203000	2.495828
2.204000	2.490340
2.205000	2.490340
2.206000	2.496796
2.207000	2.502284
2.208000	2.500993
2.209000	2.489372
2.210000	2.475491
2.211000	2.459350
2.212000	2.439982
2.213000	2.419322
2.214000	2.409638
2.215000	2.419645
2.216000	2.442564
2.217000	2.469035
2.218000	2.494536
2.219000	2.515842
2.220000	2.531014
2.221000	2.541021
2.222000	2.550059
2.223000	2.560389
2.224000	2.567814
2.225000	2.566200
2.226000	2.555224
2.227000	2.538438
2.228000	2.523589
2.229000	2.519070
2.230000	2.524880
2.231000	2.536179
2.232000	2.553287
2.233000	2.577821
2.234000	2.599772
2.235000	2.611393
2.236000	2.617526
2.237000	2.625919
2.238000	2.640768
2.239000	2.660460
2.240000	2.678537
2.241000	2.690481
2.242000	2.691772
2.243000	2.675631
2.244000	2.640445
2.245000	2.591702
2.246000	2.535856
2.247000	2.477105
2.248000	2.426101
2.249000	2.395112
2.250000	2.384136
2.251000	2.391561
2.252000	2.405764
2.253000	2.429007
2.254000	2.457736
2.255000	2.483561
2.256000	2.505189
2.257000	2.531982
2.258000	2.567168
2.259000	2.602354
2.260000	2.633344
2.261000	2.656263
2.262000	2.665302
2.263000	2.650130
2.264000	2.622368
2.265000	2.585245
2.266000	2.542958
2.267000	2.500024
2.268000	2.466129
2.269000	2.451280
2.270000	2.450635
2.271000	2.464193
2.272000	2.490340
2.273000	2.512936
2.274000	2.520038
2.275000	2.518747
2.276000	2.512936
2.277000	2.497765
2.278000	2.479042
2.279000	2.458705
2.280000	2.444178
2.281000	2.438691
2.282000	2.446761
2.283000	2.463870
2.284000	2.484852
2.285000	2.508740
2.286000	2.534242
2.287000	2.567168
2.288000	2.600417
2.289000	2.608810
2.290000	2.594607
2.291000	2.566845
2.292000	2.528754
2.293000	2.492922
2.294000	2.472263
2.295000	2.475491
2.296000	2.492600
2.297000	2.518424
2.298000	2.545217
2.299000	2.576852
2.300000	2.615589
2.301000	2.647224
2.302000	2.663688
2.303000	2.668207
2.304000	2.663365
2.305000	2.654003
2.306000	2.642705
2.307000	2.635603
2.308000	2.632052
2.309000	2.621400
2.310000	2.604937
2.311000	2.594607
2.312000	2.594284
2.313000	2.606551
2.314000	2.627210
2.315000	2.648193
2.316000	2.665302
2.317000	2.676923
2.318000	2.680151
2.319000	2.664010
2.320000	2.637217
2.321000	2.623337
2.322000	2.627533
2.323000	2.640768
2.324000	2.663688
2.325000	2.690803
2.326000	2.717274
2.327000	2.732768
2.328000	2.739870
2.329000	2.743744
2.330000	2.757947
2.331000	2.771828
2.332000	2.771505
2.333000	2.743744
2.334000	2.687575
2.335000	2.620754
2.336000	2.572010
2.337000	2.556838
2.338000	2.557161
2.339000	2.574916
2.340000	2.611393
2.341000	2.649807
2.342000	2.670467
2.343000	2.676600
2.344000	2.674986
2.345000	2.670789
2.346000	2.661428
2.347000	2.645933
2.348000	2.641737
2.349000	2.654649
2.350000	2.675631
2.351000	2.723407
2.352000	2.797330
2.353000	2.875127
2.354000	2.946467
2.355000	3.004572
2.356000	3.044923
2.357000	3.078172
2.358000	3.100446
2.359000	3.102383
2.360000	3.087857
2.361000	3.057190
2.362000	3.003604
2.363000	2.918706
2.364000	2.813147
2.365000	2.708235
2.366000	2.619140
2.367000	2.546831
2.368000	2.498733
2.369000	2.483561
2.370000	2.494536
2.371000	2.533919
2.372000	2.596221
2.373000	2.658523
2.374000	2.711140
2.375000	2.752137
2.376000	2.792165
2.377000	2.821540
2.378000	2.841555
2.379000	2.872867
2.380000	2.924516
2.381000	2.994565
2.382000	3.068811
2.383000	3.127885
2.384000	3.155001
2.385000	3.175338
2.386000	3.201485
2.387000	3.228278
2.388000	3.235703
2.389000	3.214397
2.390000	3.172755
2.391000	3.119492
2.392000	3.059450
2.393000	2.999730
2.394000	2.946467
2.395000	2.884811
2.396000	2.813793
2.397000	2.753751
2.398000	2.713400
2.399000	2.677568
2.400000	2.648516
2.401000	2.633344
2.402000	2.626565
2.403000	2.627210
2.404000	2.630761
2.405000	2.624305
2.406000	2.626888
2.407000	2.651744
2.408000	2.689835
2.409000	2.727926
2.410000	2.755688
2.411000	2.778284
2.412000	2.806046
2.413000	2.838972
2.414000	2.884165
2.415000	2.941625
2.416000	3.014902
2.417000	3.087534
2.418000	3.133695
2.419000	3.142088
2.420000	3.112390
2.421000	3.054930
2.422000	3.003927
2.423000	2.975842
2.424000	2.967772
2.425000	2.974228
2.426000	2.976811
2.427000	2.994243
2.428000	3.039758
2.429000	3.073008
2.430000	3.082046
2.431000	3.080109
2.432000	3.071716
2.433000	3.050734
2.434000	3.032657
2.435000	3.031688
2.436000	3.029751
2.437000	3.010060
2.438000	2.963576
2.439000	2.908699
2.440000	2.852530
2.441000	2.804432
2.442000	2.775379
2.443000	2.760530
2.444000	2.751814
2.445000	2.754074
2.446000	2.780544
2.447000	2.837358
2.448000	2.928390
2.449000	3.038144
2.450000	3.161780
2.451000	3.283155
2.452000	3.367731
2.453000	3.370959
2.454000	3.303169
2.455000	3.204713
2.456000	3.105611
2.457000	3.029106
2.458000	2.980039
2.459000	2.937428
2.460000	2.885456
2.461000	2.835098
2.462000	2.816698
2.463000	2.830902
2.464000	2.856726
2.465000	2.902565
2.466000	2.960671
2.467000	3.008123
2.468000	3.047183
2.469000	3.084306
2.470000	3.101415
2.471000	3.077204
2.472000	3.021358
2.473000	2.964544
2.474000	2.913541
2.475000	2.881583
2.476000	2.887070
2.477000	2.916446
2.478000	2.930649
2.479000	2.928713
2.480000	2.926130
2.481000	2.918060
2.482000	2.910313
2.483000	2.910635
2.484000	2.909990
2.485000	2.906116
2.486000	2.902242
2.487000	2.914832
2.488000	2.939688
2.489000	2.971000
2.490000	3.021681
2.491000	3.087857
2.492000	3.155646
2.493000	3.230860
2.494000	3.288320
2.495000	3.316404
2.496000	3.315759
2.497000	3.285092
2.498000	3.235380
2.499000	3.180180
2.500000	3.116587
2.501000	3.033625
2.502000	2.943562
2.503000	2.856081
2.504000	2.789905
2.505000	2.760853
2.506000	2.762144
2.507000	2.786032
2.508000	2.831548
2.509000	2.888039
2.510000	2.962607
2.511000	3.032334
2.512000	3.076236
2.513000	3.106257
2.514000	3.125948
2.515000	3.126271
2.516000	3.094636
2.517000	3.032334
2.518000	2.958734
2.519000	2.888039
2.520000	2.820572
2.521000	2.759239
2.522000	2.705653
2.523000	2.668853
2.524000	2.653681
2.525000	2.658200
2.526000	2.678860
2.527000	2.705975
2.528000	2.746972
2.529000	2.813147
2.530000	2.888039
2.531000	2.945821
2.532000	2.994565
2.533000	3.031365
2.534000	3.050088
2.535000	3.066874
2.536000	3.091085
2.537000	3.102060
2.538000	3.086565
2.539000	3.054930
2.540000	3.020713
2.541000	2.989078
2.542000	2.972614
2.543000	2.967772
2.544000	2.981653
2.545000	3.019744
2.546000	3.066874
2.547000	3.102383
2.548000	3.115295
2.549000	3.106257
2.550000	3.077527
2.551000	3.034593
2.552000	2.994243
2.553000	2.956151
2.554000	2.925807
2.555000	2.904502
2.556000	2.893527
2.557000	2.902565
2.558000	2.925807
2.559000	2.944207
2.560000	2.958088
2.561000	2.963576
2.562000	2.956151
2.563000	2.953569
2.564000	2.955183
2.565000	2.950341
2.566000	2.937751
2.567000	2.921611
2.568000	2.896109
2.569000	2.865442
2.570000	2.837358
2.571000	2.812825
2.572000	2.792811
2.573000	2.775056
2.574000	2.761821
2.575000	2.746972
2.576000	2.734705
2.577000	2.733737
2.578000	2.743744
2.579000	2.761821
2.580000	2.783449
2.581000	2.807660
2.582000	2.829611
2.583000	2.848334
2.584000	2.863828
2.585000	2.875449
2.586000	2.886425
2.587000	2.899660
2.588000	2.910313
2.589000	2.916123
2.590000	2.920642
2.591000	2.922902
2.592000	2.923225
2.593000	2.921934
2.594000	2.919351
2.595000	2.919351
2.596000	2.920320
2.597000	2.921934
2.598000	2.920965
2.599000	2.912895
2.600000	2.903534
2.601000	2.897400
2.602000	2.893204
2.603000	2.888362
2.604000	2.884165
2.605000	2.881260
2.606000	2.877709
2.607000	2.872544
2.608000	2.864151
2.609000	2.860277
2.610000	2.862537
2.611000	2.870607
2.612000	2.882228
2.613000	2.899337
2.614000	2.921611
2.615000	2.950018
2.616000	2.975197
2.617000	2.985850
2.618000	2.984235
2.619000	2.983590
2.620000	2.977457
2.621000	2.964221
2.622000	2.944853
2.623000	2.923225
2.624000	2.903211
2.625000	2.891913
2.626000	2.886748
2.627000	2.886102
2.628000	2.886425
2.629000	2.888039
2.630000	2.891267
2.631000	2.896109
2.632000	2.899014
2.633000	2.903211
2.634000	2.909667
2.635000	2.917414
2.636000	2.923870
2.637000	2.928067
2.638000	2.930327
2.639000	2.934846
2.640000	2.941948
2.641000	2.953892
2.642000	2.967449
2.643000	2.979071
2.644000	2.987141
2.645000	2.992628
2.646000	2.990046
2.647000	2.973906
2.648000	2.951309
2.649000	2.922579
2.650000	2.895141
2.651000	2.871898
2.652000	2.847365
2.653000	2.822832
2.654000	2.800881
2.655000	2.785386
2.656000	2.777639
2.657000	2.774088
2.658000	2.774088
2.659000	2.776347
2.660000	2.781835
2.661000	2.788937
2.662000	2.797653
2.663000	2.805723
2.664000	2.815084
2.665000	2.826383
2.666000	2.837681
2.667000	2.849302
2.668000	2.858018
2.669000	2.862860
2.670000	2.864151
2.671000	2.863505
2.672000	2.859309
2.673000	2.854467
2.674000	2.851239
2.675000	2.848979
2.676000	2.845751
2.677000	2.843491
2.678000	2.843491
2.679000	2.844460
2.680000	2.845751
2.681000	2.848334
2.682000	2.850916
2.683000	2.851884
2.684000	2.854144
2.685000	2.855758
2.686000	2.857049
2.687000	2.858663
2.688000	2.857372
2.689000	2.856081
2.690000	2.851239
2.691000	2.844783
2.692000	2.836712
2.693000	2.830256
2.694000	2.826383
2.695000	2.826383
2.696000	2.827351
2.697000	2.829611
2.698000	2.831225
2.699000	2.833162
2.700000	2.832839
2.701000	2.829611
2.702000	2.824769
2.703000	2.816053
2.704000	2.804754
2.705000	2.797007
2.706000	2.796361
2.707000	2.797330
2.708000	2.797330
2.709000	2.800558
2.710000	2.802495
2.711000	2.803140
2.712000	2.800558
2.713000	2.797976
2.714000	2.797330
2.715000	2.799590
2.716000	2.797330
2.717000	2.792165
2.718000	2.786354
2.719000	2.778284
2.720000	2.770214
2.721000	2.761175
2.722000	2.752782
2.723000	2.747618
2.724000	2.742453
2.725000	2.739225
2.726000	2.738902
2.727000	2.740839
2.728000	2.742453
2.729000	2.744067
2.730000	2.746649
2.731000	2.746649
2.732000	2.743744
2.733000	2.736642
2.734000	2.727926
2.735000	2.719210
2.736000	2.710172
2.737000	2.701456
2.738000	2.690158
2.739000	2.679828
2.740000	2.674017
2.741000	2.671758
2.742000	2.669498
2.743000	2.671112
2.744000	2.670467
2.745000	2.673372
2.746000	2.678860
2.747000	2.685961
2.748000	2.694354
2.749000	2.702102
2.750000	2.707589
2.751000	2.710495
2.752000	2.709526
2.753000	2.709203
2.754000	2.708558
2.755000	2.705007
2.756000	2.703393
2.757000	2.704361
2.758000	2.707912
2.759000	2.707589
2.760000	2.704039
2.761000	2.695968
2.762000	2.684347
2.763000	2.672403
2.764000	2.660137
2.765000	2.648516
2.766000	2.636572
2.767000	2.623982
2.768000	2.615589
2.769000	2.609456
2.770000	2.604291
2.771000	2.601709
2.772000	2.603323
2.773000	2.607196
2.774000	2.612684
2.775000	2.618817
2.776000	2.624951
2.777000	2.629793
2.778000	2.633344
2.779000	2.630761
2.780000	2.624628
2.781000	2.618172
2.782000	2.612038
2.783000	2.606873
2.784000	2.602031
2.785000	2.598803
2.786000	2.598158
2.787000	2.597835
2.788000	2.602677
2.789000	2.611070
2.790000	2.619463
2.791000	2.624951
2.792000	2.627533
2.793000	2.628824
2.794000	2.629470
2.795000	2.626888
2.796000	2.617203
2.797000	2.607196
2.798000	2.597189
2.799000	2.590410
2.800000	2.585245
2.801000	2.583631
2.802000	2.578144
2.803000	2.570719
2.804000	2.567491
2.805000	2.563617
2.806000	2.556516
2.807000	2.549737
2.808000	2.549414
2.809000	2.555870
2.810000	2.565877
2.811000	2.578789
2.812000	2.588151
2.813000	2.594607
2.814000	2.597835
2.815000	2.596544
2.816000	2.591056
2.817000	2.579758
2.818000	2.567814
2.819000	2.555547
2.820000	2.545863
2.821000	2.534887
2.822000	2.522298
2.823000	2.514228
2.824000	2.509386
2.825000	2.507449
2.826000	2.508417
2.827000	2.511645
2.828000	2.515842
2.829000	2.518747
2.830000	2.521007
2.831000	2.524235
2.832000	2.528108
2.833000	2.532305
2.834000	2.531659
2.835000	2.529077
2.836000	2.527140
2.837000	2.528108
2.838000	2.531014
2.839000	2.533596
2.840000	2.535210
2.841000	2.533596
2.842000	2.532628
2.843000	2.529077
2.844000	2.526172
2.845000	2.520038
2.846000	2.510677
2.847000	2.500993
2.848000	2.492922
2.849000	2.485498
2.850000	2.481624
2.851000	2.479365
2.852000	2.478396
2.853000	2.476782
2.854000	2.477428
2.855000	2.480010
2.856000	2.480979
2.857000	2.486143
2.858000	2.492277
2.859000	2.497119
2.860000	2.499701
2.861000	2.501638
2.862000	2.501961
2.863000	2.504866
2.864000	2.509063
2.865000	2.508417
2.866000	2.501638
2.867000	2.491308
2.868000	2.476136
2.869000	2.461933
2.870000	2.451926
2.871000	2.448375
2.872000	2.447407
2.873000	2.446115
2.874000	2.443210
2.875000	2.440628
2.876000	2.442564
2.877000	2.448698
2.878000	2.454831
2.879000	2.460319
2.880000	2.463224
2.881000	2.462579
2.882000	2.461610
2.883000	2.456768
2.884000	2.445147
2.885000	2.432557
2.886000	2.427070
2.887000	2.429007
2.888000	2.438691
2.889000	2.455154
2.890000	2.470003
2.891000	2.480979
2.892000	2.481301
2.893000	2.474845
2.894000	2.468066
2.895000	2.464838
2.896000	2.463224
2.897000	2.463547
2.898000	2.461933
2.899000	2.460642
2.900000	2.456768
2.901000	2.449343
2.902000	2.440950
2.903000	2.432880
2.904000	2.426424
2.905000	2.420614
2.906000	2.415771
2.907000	2.415126
2.908000	2.417063
2.909000	2.423519
2.910000	2.432880
2.911000	2.446761
2.912000	2.467098
2.913000	2.487757
2.914000	2.504221
2.915000	2.513905
2.916000	2.512936
2.917000	2.503575
2.918000	2.490017
2.919000	2.474522
2.920000	2.455800
2.921000	2.435140
2.922000	2.414157
2.923000	2.396726
2.924000	2.381554
2.925000	2.370578
2.926000	2.364768
2.927000	2.366059
2.928000	2.371224
2.929000	2.379294
2.930000	2.383491
2.931000	2.382845
2.932000	2.379617
2.933000	2.378649
2.934000	2.379940
2.935000	2.380585
2.936000	2.381877
2.937000	2.382845
2.938000	2.382199
2.939000	2.380585
2.940000	2.381877
2.941000	2.386719
2.942000	2.395112
2.943000	2.405442
2.944000	2.418031
2.945000	2.429007
2.946000	2.431912
2.947000	2.429329
2.948000	2.425133
2.949000	2.419968
2.950000	2.413835
2.951000	2.409315
2.952000	2.406410
2.953000	2.403182
2.954000	2.395757
2.955000	2.388978
2.956000	2.379940
2.957000	2.373161
2.958000	2.367996
2.959000	2.366382
2.960000	2.367027
2.961000	2.369610
2.962000	2.373806
2.963000	2.378326
2.964000	2.381554
2.965000	2.384459
2.966000	2.383813
2.967000	2.382199
2.968000	2.381877
2.969000	2.384459
2.970000	2.387364
2.971000	2.387042
2.972000	2.386719
2.973000	2.383813
2.974000	2.380263
2.975000	2.380585
2.976000	2.384136
2.977000	2.390592
2.978000	2.398017
2.979000	2.403828
2.980000	2.408670
2.981000	2.414803
2.982000	2.423842
2.983000	2.429652
2.984000	2.431266
2.985000	2.425456
2.986000	2.417063
2.987000	2.407701
2.988000	2.397694
2.989000	2.384136
2.990000	2.369287
2.991000	2.349919
2.992000	2.333778
2.993000	2.323126
2.994000	2.320866
2.995000	2.322157
2.996000	2.329905
2.997000	2.337652
2.998000	2.347013
2.999000	2.356698
3.000000	2.370578
3.001000	2.384782
3.002000	2.394466
3.003000	2.400599
3.004000	2.404473
3.005000	2.403182
3.006000	2.398017
3.007000	2.390270
3.008000	2.383168
3.009000	2.376389
3.010000	2.372515
3.011000	2.367996
3.012000	2.364445
3.013000	2.368642
3.014000	2.379294
3.015000	2.391238
3.016000	2.394143
3.017000	2.385428
3.018000	2.373806
3.019000	2.365736
3.020000	2.360894
3.021000	2.357020
3.022000	2.356698
3.023000	2.356698
3.024000	2.357020
3.025000	2.357343
3.026000	2.364445
3.027000	2.373806
3.028000	2.383491
3.029000	2.395757
3.030000	2.409638
3.031000	2.420936
3.032000	2.421582
3.033000	2.408670
3.034000	2.387042
3.035000	2.360894
3.036000	2.333778
3.037000	2.309245
3.038000	2.286326
3.039000	2.268894
3.040000	2.257273
3.041000	2.251140
3.042000	2.249203
3.043000	2.250494
3.044000	2.255982
3.045000	2.267603
3.046000	2.280192
3.047000	2.292782
3.048000	2.306017
3.049000	2.317638
3.050000	2.329905
3.051000	2.345077
3.052000	2.359926
3.053000	2.374129
3.054000	2.386073
3.055000	2.395757
3.056000	2.402859
3.057000	2.398340
3.058000	2.383813
3.059000	2.371224
3.060000	2.361863
3.061000	2.356698
3.062000	2.356052
3.063000	2.357989
3.064000	2.362508
3.065000	2.368964
3.066000	2.380263
3.067000	2.392529
3.068000	2.393821
3.069000	2.378326
3.070000	2.352178
3.071000	2.327322
3.072000	2.307954
3.073000	2.292782
3.074000	2.280838
3.075000	2.271799
3.076000	2.269862
3.077000	2.274382
3.078000	2.282775
3.079000	2.294396
3.080000	2.303112
3.081000	2.303434
3.082000	2.299238
3.083000	2.295364
3.084000	2.295041
3.085000	2.297947
3.086000	2.304403
3.087000	2.311182
3.088000	2.315055
3.089000	2.320220
3.090000	2.320220
3.091000	2.317638
3.092000	2.314087
3.093000	2.309891
3.094000	2.303112
3.095000	2.297947
3.096000	2.294396
3.097000	2.294073
3.098000	2.297624
3.099000	2.303434
3.100000	2.309568
3.101000	2.318284
3.102000	2.327968
3.103000	2.334101
3.104000	2.337006
3.105000	2.339589
3.106000	2.347336
3.107000	2.353792
3.108000	2.358957
3.109000	2.361540
3.110000	2.364768
3.111000	2.370578
3.112000	2.368964
3.113000	2.359926
3.114000	2.346691
3.115000	2.335392
3.116000	2.327322
3.117000	2.316024
3.118000	2.304726
3.119000	2.290522
3.120000	2.274059
3.121000	2.261792
3.122000	2.259210
3.123000	2.266957
3.124000	2.273090
3.125000	2.277933
3.126000	2.284389
3.127000	2.296010
3.128000	2.311182
3.129000	2.328936
3.130000	2.344431
3.131000	2.357989
3.132000	2.361540
3.133000	2.358634
3.134000	2.349273
3.135000	2.335715
3.136000	2.328291
3.137000	2.325385
3.138000	2.323126
3.139000	2.318284
3.140000	2.312796
3.141000	2.306985
3.142000	2.305048
3.143000	2.308599
3.144000	2.317638
3.145000	2.328291
3.146000	2.338620
3.147000	2.348305
3.148000	2.359603
3.149000	2.369287
3.150000	2.375743
3.151000	2.373161
3.152000	2.355084
3.153000	2.326999
3.154000	2.298915
3.155000	2.273736
3.156000	2.252431
3.157000	2.239519
3.158000	2.234354
3.159000	2.238227
3.160000	2.249526
3.161000	2.269217
3.162000	2.294719
3.163000	2.322480
3.164000	2.342171
3.165000	2.351533
3.166000	2.348627
3.167000	2.337329
3.168000	2.326677
3.169000	2.324740
3.170000	2.332487
3.171000	2.350564
3.172000	2.382845
3.173000	2.418031
3.174000	2.440305
3.175000	2.445793
3.176000	2.438045
3.177000	2.424164
3.178000	2.400599
3.179000	2.369610
3.180000	2.335392
3.181000	2.300206
3.182000	2.270831
3.183000	2.253722
3.184000	2.252108
3.185000	2.264698
3.186000	2.287294
3.187000	2.310536
3.188000	2.331841
3.189000	2.344431
3.190000	2.353147
3.191000	2.360571
3.192000	2.370578
3.193000	2.384136
3.194000	2.402214
3.195000	2.415126
3.196000	2.416740
3.197000	2.412221
3.198000	2.409315
3.199000	2.405119
3.200000	2.404150
3.201000	2.404473
3.202000	2.401245
3.203000	2.397049
3.204000	2.395435
3.205000	2.396080
3.206000	2.393498
3.207000	2.384782
3.208000	2.377035
3.209000	2.367350
3.210000	2.349596
3.211000	2.326031
3.212000	2.299884
3.213000	2.271476
3.214000	2.250817
3.215000	2.243392
3.216000	2.245006
3.217000	2.258887
3.218000	2.282129
3.219000	2.313441
3.220000	2.351856
3.221000	2.395757
3.222000	2.430943
3.223000	2.451603
3.224000	2.461610
3.225000	2.457736
3.226000	2.443533
3.227000	2.421905
3.228000	2.390592
3.229000	2.353792
3.230000	2.324740
3.231000	2.306985
3.232000	2.296655
3.233000	2.291813
3.234000	2.286003
3.235000	2.283743
3.236000	2.292459
3.237000	2.310536
3.238000	2.329582
3.239000	2.346045
3.240000	2.350887
3.241000	2.348950
3.242000	2.353470
3.243000	2.366705
3.244000	2.381231
3.245000	2.394789
3.246000	2.406087
3.247000	2.419645
3.248000	2.438368
3.249000	2.462256
3.250000	2.487112
3.251000	2.508417
3.252000	2.532305
3.253000	2.568137
3.254000	2.610747
3.255000	2.648516
3.256000	2.673695
3.257000	2.676923
3.258000	2.657231
3.259000	2.623659
3.260000	2.588796
3.261000	2.550059
3.262000	2.513905
3.263000	2.483884
3.264000	2.462256
3.265000	2.449989
3.266000	2.442564
3.267000	2.442564
3.268000	2.454186
3.269000	2.465161
3.270000	2.462256
3.271000	2.451926
3.272000	2.442242
3.273000	2.435463
3.274000	2.431912
3.275000	2.427715
3.276000	2.424487
3.277000	2.422228
3.278000	2.414803
3.279000	2.409961
3.280000	2.407701
3.281000	2.413189
3.282000	2.421582
3.283000	2.432557
3.284000	2.443856
3.285000	2.453217
3.286000	2.459996
3.287000	2.465161
3.288000	2.483561
3.289000	2.522621
3.290000	2.571687
3.291000	2.613330
3.292000	2.648193
3.293000	2.674986
3.294000	2.681119
3.295000	2.667561
3.296000	2.643028
3.297000	2.606228
3.298000	2.568782
3.299000	2.538761
3.300000	2.511322
3.301000	2.487435
3.302000	2.474200
3.303000	2.478396
3.304000	2.489372
3.305000	2.501638
3.306000	2.496473
3.307000	2.470326
3.308000	2.430621
3.309000	2.391884
3.310000	2.364445
3.311000	2.353792
3.312000	2.361863
3.313000	2.390915
3.314000	2.428361
3.315000	2.466775
3.316000	2.491954
3.317000	2.503898
3.318000	2.510031
3.319000	2.514551
3.320000	2.534887
3.321000	2.577175
3.322000	2.619463
3.323000	2.646256
3.324000	2.656586
3.325000	2.661105
3.326000	2.660137
3.327000	2.649161
3.328000	2.630761
3.329000	2.612684
3.330000	2.598158
3.331000	2.589442
3.332000	2.590733
3.333000	2.601709
3.334000	2.618817
3.335000	2.627533
3.336000	2.628824
3.337000	2.622368
3.338000	2.609456
3.339000	2.592347
3.340000	2.576852
3.341000	2.572656
3.342000	2.584600
3.343000	2.614298
3.344000	2.645933
3.345000	2.686607
3.346000	2.715982
3.347000	2.720825
3.348000	2.727281
3.349000	2.753105
3.350000	2.776347
3.351000	2.780221
3.352000	2.754719
3.353000	2.699196
3.354000	2.625919
3.355000	2.554579
3.356000	2.496150
3.357000	2.448052
3.358000	2.408347
3.359000	2.392852
3.360000	2.412866
3.361000	2.443856
3.362000	2.475814
3.363000	2.511322
3.364000	2.551996
3.365000	2.606228
3.366000	2.672081
3.367000	2.739225
3.368000	2.800235
3.369000	2.857695
3.370000	2.906116
3.371000	2.908376
3.372000	2.868348
3.373000	2.808305
3.374000	2.742775
3.375000	2.682410
3.376000	2.632375
3.377000	2.584600
3.378000	2.532628
3.379000	2.486143
3.380000	2.441596
3.381000	2.399308
3.382000	2.375420
3.383000	2.377680
3.384000	2.397371
3.385000	2.428361
3.386000	2.473554
3.387000	2.526817
3.388000	2.578789
3.389000	2.636572
3.390000	2.690803
3.391000	2.731477
3.392000	2.767632
3.393000	2.802495
3.394000	2.830902
3.395000	2.846397
3.396000	2.845428
3.397000	2.821863
3.398000	2.787323
3.399000	2.749877
3.400000	2.730832
3.401000	2.737611
3.402000	2.753751
3.403000	2.773119
3.404000	2.799267
3.405000	2.822832
3.406000	2.835744
3.407000	2.836712
3.408000	2.833162
3.409000	2.834453
3.410000	2.814762
3.411000	2.773765
3.412000	2.749232
3.413000	2.756656
3.414000	2.782158
3.415000	2.801204
3.416000	2.802172
3.417000	2.786354
3.418000	2.771505
3.419000	2.767309
3.420000	2.758270
3.421000	2.742775
3.422000	2.727281
3.423000	2.724698
3.424000	2.722439
3.425000	2.695646
3.426000	2.646256
3.427000	2.594607
3.428000	2.559744
3.429000	2.543926
3.430000	2.538761
3.431000	2.546508
3.432000	2.562326
3.433000	2.580403
3.434000	2.604614
3.435000	2.624951
3.436000	2.636249
3.437000	2.641091
3.438000	2.657231
3.439000	2.694354
3.440000	2.741807
3.441000	2.789260
3.442000	2.841555
3.443000	2.904825
3.444000	2.957120
3.445000	2.993274
3.446000	3.029429
3.447000	3.050734
3.448000	3.038790
3.449000	3.004250
3.450000	2.960025
3.451000	2.914832
3.452000	2.880291
3.453000	2.856404
3.454000	2.830902
3.455000	2.807337
3.456000	2.785386
3.457000	2.768923
3.458000	2.762467
3.459000	2.773765
3.460000	2.798944
3.461000	2.817990
3.462000	2.810242
3.463000	2.776993
3.464000	2.743098
3.465000	2.715337
3.466000	2.691126
3.467000	2.676600
3.468000	2.680474
3.469000	2.696937
3.470000	2.701456
3.471000	2.683702
3.472000	2.664333
3.473000	2.653681
3.474000	2.652389
3.475000	2.657554
3.476000	2.666916
3.477000	2.697260
3.478000	2.747940
3.479000	2.805077
3.480000	2.876741
3.481000	2.946467
3.482000	2.981330
3.483000	2.995534
3.484000	3.000376
3.485000	2.989723
3.486000	2.968741
3.487000	2.937751
3.488000	2.897723
3.489000	2.858018
3.490000	2.838326
3.491000	2.832193
3.492000	2.830902
3.493000	2.841232
3.494000	2.874481
3.495000	2.932263
3.496000	2.979071
3.497000	2.981007
3.498000	2.945176
3.499000	2.887716
3.500000	2.824769
3.501000	2.770860
3.502000	2.735028
3.503000	2.722116
3.504000	2.729863
3.505000	2.756656
3.506000	2.818958
3.507000	2.924193
3.508000	3.036530
3.509000	3.135309
3.510000	3.196643
3.511000	3.171787
3.512000	3.089794
3.513000	3.014579
3.514000	2.956474
3.515000	2.906116
3.516000	2.854144
3.517000	2.791197
3.518000	2.719856
3.519000	2.651421
3.520000	2.594607
3.521000	2.558130
3.522000	2.543280
3.523000	2.549091
3.524000	2.576207
3.525000	2.611393
3.526000	2.652067
3.527000	2.695323
3.528000	2.741807
3.529000	2.805077
3.530000	2.887393
3.531000	2.961639
3.532000	3.011351
3.533000	3.024586
3.534000	3.004250
3.535000	2.963253
3.536000	2.919028
3.537000	2.865119
3.538000	2.812179
3.539000	2.766018
3.540000	2.733414
3.541000	2.712432
3.542000	2.694032
3.543000	2.681765
3.544000	2.673695
3.545000	2.671435
3.546000	2.684993
3.547000	2.712109
3.548000	2.750200
3.549000	2.807014
3.550000	2.884488
3.551000	2.973583
3.552000	3.061064
3.553000	3.118201
3.554000	3.125625
3.555000	3.102060
3.556000	3.073976
3.557000	3.043309
3.558000	2.994565
3.559000	2.927744
3.560000	2.854144
3.561000	2.793133
3.562000	2.748263
3.563000	2.718888
3.564000	2.707589
3.565000	2.712109
3.566000	2.719856
3.567000	2.731477
3.568000	2.746326
3.569000	2.762144
3.570000	2.775379
3.571000	2.789905
3.572000	2.809919
3.573000	2.835744
3.574000	2.864474
3.575000	2.883197
3.576000	2.883842
3.577000	2.870930
3.578000	2.851239
3.579000	2.831548
3.580000	2.809274
3.581000	2.787323
3.582000	2.770537
3.583000	2.760207
3.584000	2.759561
3.585000	2.768277
3.586000	2.781835
3.587000	2.790228
3.588000	2.792165
3.589000	2.795716
3.590000	2.801526
3.591000	2.807014
3.592000	2.813793
3.593000	2.820572
3.594000	2.827674
3.595000	2.835421
3.596000	2.843491
3.597000	2.849948
3.598000	2.851562
3.599000	2.850916
3.600000	2.850916
3.601000	2.851239
3.602000	2.849625
3.603000	2.848334
3.604000	2.848334
3.605000	2.849302
3.606000	2.854144
3.607000	2.857372
3.608000	2.858341
3.609000	2.860277
3.610000	2.863828
3.611000	2.868025
3.612000	2.870284
3.613000	2.871253
3.614000	2.869639
3.615000	2.864474
3.616000	2.860277
3.617000	2.858018
3.618000	2.858341
3.619000	2.858986
3.620000	2.865119
3.621000	2.872867
3.622000	2.883520
3.623000	2.896432
3.624000	2.906116
3.625000	2.911927
3.626000	2.917737
3.627000	2.922579
3.628000	2.923225
3.629000	2.920965
3.630000	2.919028
3.631000	2.915477
3.632000	2.913218
3.633000	2.915155
3.634000	2.915477
3.635000	2.909667
3.636000	2.900306
3.637000	2.893204
3.638000	2.887070
3.639000	2.880614
3.640000	2.874481
3.641000	2.865119
3.642000	2.855758
3.643000	2.847688
3.644000	2.837035
3.645000	2.830256
3.646000	2.828965
3.647000	2.835744
3.648000	2.845751
3.649000	2.856726
3.650000	2.864797
3.651000	2.865442
3.652000	2.861246
3.653000	2.858018
3.654000	2.852853
3.655000	2.847688
3.656000	2.839941
3.657000	2.831225
3.658000	2.817990
3.659000	2.803463
3.660000	2.792488
3.661000	2.784740
3.662000	2.778930
3.663000	2.775056
3.664000	2.773765
3.665000	2.776670
3.666000	2.780544
3.667000	2.784095
3.668000	2.789260
3.669000	2.796361
3.670000	2.801526
3.671000	2.804432
3.672000	2.805723
3.673000	2.805077
3.674000	2.803463
3.675000	2.801204
3.676000	2.799267
3.677000	2.797653
3.678000	2.797653
3.679000	2.797653
3.680000	2.797007
3.681000	2.796361
3.682000	2.792165
3.683000	2.787323
3.684000	2.781512
3.685000	2.779898
3.686000	2.779575
3.687000	2.779253
3.688000	2.777316
3.689000	2.772474
3.690000	2.765695
3.691000	2.761175
3.692000	2.757947
3.693000	2.755365
3.694000	2.752782
3.695000	2.753105
3.696000	2.753428
3.697000	2.756656
3.698000	2.762467
3.699000	2.767309
3.700000	2.768600
3.701000	2.767632
3.702000	2.765372
3.703000	2.766663
3.704000	2.766018
3.705000	2.764404
3.706000	2.761821
3.707000	2.759561
3.708000	2.760530
3.709000	2.765049
3.710000	2.766663
3.711000	2.766018
3.712000	2.762467
3.713000	2.758916
3.714000	2.754719
3.715000	2.749877
3.716000	2.746972
3.717000	2.743098
3.718000	2.741807
3.719000	2.740193
3.720000	2.736319
3.721000	2.733091
3.722000	2.732768
3.723000	2.732123
3.724000	2.729863
3.725000	2.727281
3.726000	2.724053
3.727000	2.721147
3.728000	2.718565
3.729000	2.717274
3.730000	2.717919
3.731000	2.722439
3.732000	2.727281
3.733000	2.733737
3.734000	2.740193
3.735000	2.746004
3.736000	2.749554
3.737000	2.749554
3.738000	2.748909
3.739000	2.745358
3.740000	2.742130
3.741000	2.737933
3.742000	2.734382
3.743000	2.733091
3.744000	2.733414
3.745000	2.731154
3.746000	2.729540
3.747000	2.725989
3.748000	2.721147
3.749000	2.716305
3.750000	2.710172
3.751000	2.703716
3.752000	2.698551
3.753000	2.696291
3.754000	2.696614
3.755000	2.697260
3.756000	2.699519
3.757000	2.702747
3.758000	2.701779
3.759000	2.697260
3.760000	2.691772
3.761000	2.687898
3.762000	2.684993
3.763000	2.683056
3.764000	2.683702
3.765000	2.685639
3.766000	2.685316
3.767000	2.683702
3.768000	2.680796
3.769000	2.678860
3.770000	2.678860
3.771000	2.680151
3.772000	2.681119
3.773000	2.681765
3.774000	2.681119
3.775000	2.682088
3.776000	2.684347
3.777000	2.684347
3.778000	2.683379
3.779000	2.681442
3.780000	2.680796
3.781000	2.679828
3.782000	2.678537
3.783000	2.676923
3.784000	2.676277
3.785000	2.674017
3.786000	2.670144
3.787000	2.666916
3.788000	2.662396
3.789000	2.657877
3.790000	2.655295
3.791000	2.654649
3.792000	2.652067
3.793000	2.650452
3.794000	2.648516
3.795000	2.646902
3.796000	2.643996
3.797000	2.640768
3.798000	2.638509
3.799000	2.634635
3.800000	2.633021
3.801000	2.632052
3.802000	2.633666
3.803000	2.634635
3.804000	2.634312
3.805000	2.632375
3.806000	2.632375
3.807000	2.636249
3.808000	2.641737
3.809000	2.649484
3.810000	2.658523
3.811000	2.665624
3.812000	2.668530
3.813000	2.668853
3.814000	2.665947
3.815000	2.663365
3.816000	2.662396
3.817000	2.661105
3.818000	2.660782
3.819000	2.663365
3.820000	2.667884
3.821000	2.671435
3.822000	2.668530
3.823000	2.657231
3.824000	2.638509
3.825000	2.616558
3.826000	2.590410
3.827000	2.569428
3.828000	2.558452
3.829000	2.554256
3.830000	2.553933
3.831000	2.553933
3.832000	2.555224
3.833000	2.559744
3.834000	2.565877
3.835000	2.569751
3.836000	2.572333
3.837000	2.575884
3.838000	2.578466
3.839000	2.580403
3.840000	2.578789
3.841000	2.575561
3.842000	2.572979
3.843000	2.569105
3.844000	2.566523
3.845000	2.561680
3.846000	2.560066
3.847000	2.558775
3.848000	2.560066
3.849000	2.561680
3.850000	2.563294
3.851000	2.565877
3.852000	2.568137
3.853000	2.568459
3.854000	2.569105
3.855000	2.568782
3.856000	2.572979
3.857000	2.579435
3.858000	2.592024
3.859000	2.603323
3.860000	2.610747
3.861000	2.613330
3.862000	2.616558
3.863000	2.619463
3.864000	2.616881
3.865000	2.608165
3.866000	2.594284
3.867000	2.574593
3.868000	2.556516
3.869000	2.539407
3.870000	2.523589
3.871000	2.512936
3.872000	2.509708
3.873000	2.508417
3.874000	2.505512
3.875000	2.502284
3.876000	2.500347
3.877000	2.498087
3.878000	2.499056
3.879000	2.501961
3.880000	2.508417
3.881000	2.515842
3.882000	2.521975
3.883000	2.527463
3.884000	2.531337
3.885000	2.534887
3.886000	2.538438
3.887000	2.542312
3.888000	2.546186
3.889000	2.548768
3.890000	2.551673
3.891000	2.554256
3.892000	2.551996
3.893000	2.542958
3.894000	2.531337
3.895000	2.522621
3.896000	2.515842
3.897000	2.511968
3.898000	2.513582
3.899000	2.514873
3.900000	2.515519
3.901000	2.515519
3.902000	2.513905
3.903000	2.514551
3.904000	2.516810
3.905000	2.518101
3.906000	2.521329
3.907000	2.522621
3.908000	2.522298
3.909000	2.521329
3.910000	2.519070
3.911000	2.518101
3.912000	2.516810
3.913000	2.513905
3.914000	2.511645
3.915000	2.508094
3.916000	2.506158
3.917000	2.505835
3.918000	2.505512
3.919000	2.507449
3.920000	2.509386
3.921000	2.508094
3.922000	2.507126
3.923000	2.505835
3.924000	2.502284
3.925000	2.500347
3.926000	2.500993
3.927000	2.502929
3.928000	2.506480
3.929000	2.507126
3.930000	2.503575
3.931000	2.498087
3.932000	2.493891
3.933000	2.491308
3.934000	2.493568
3.935000	2.495828
3.936000	2.496150
3.937000	2.493245
3.938000	2.490340
3.939000	2.487112
3.940000	2.486143
3.941000	2.486143
3.942000	2.484852
3.943000	2.481947
3.944000	2.479365
3.945000	2.478719
3.946000	2.478719
3.947000	2.479042
3.948000	2.481947
3.949000	2.485175
3.950000	2.490017
3.951000	2.495182
3.952000	2.499056
3.953000	2.499701
3.954000	2.498410
3.955000	2.497442
3.956000	2.497765
3.957000	2.497765
3.958000	2.499701
3.959000	2.500670
3.960000	2.499379
3.961000	2.498410
3.962000	2.496796
3.963000	2.495505
3.964000	2.492600
3.965000	2.485175
3.966000	2.474845
3.967000	2.465807
3.968000	2.461610
3.969000	2.461933
3.970000	2.465161
3.971000	2.467421
3.972000	2.467098
3.973000	2.465484
3.974000	2.464193
3.975000	2.463870
3.976000	2.463547
3.977000	2.465807
3.978000	2.472586
3.979000	2.480979
3.980000	2.487435
3.981000	2.490340
3.982000	2.492600
3.983000	2.493245
3.984000	2.492600
3.985000	2.492600
3.986000	2.492600
3.987000	2.493891
3.988000	2.495505
3.989000	2.499056
3.990000	2.502607
3.991000	2.504866
3.992000	2.505835
3.993000	2.505835
3.994000	2.503575
3.995000	2.500347
3.996000	2.495828
3.997000	2.489049
3.998000	2.481624
3.999000	2.477428
4.000000	2.475491
4.001000	2.475491
4.002000	2.479365
4.003000	2.478396
4.004000	2.473877
4.005000	2.472908
4.006000	2.474522
4.007000	2.481624
4.008000	2.490663
4.009000	2.499056
4.010000	2.504866
4.011000	2.506158
4.012000	2.504543
4.013000	2.503898
4.014000	2.499056
4.015000	2.495505
4.016000	2.493891
4.017000	2.495182
4.018000	2.494536
4.019000	2.491954
4.020000	2.490017
4.021000	2.490340
4.022000	2.489049
4.023000	2.489694
4.024000	2.489694
4.025000	2.489372
4.026000	2.483561
4.027000	2.474200
4.028000	2.461610
4.029000	2.446438
4.030000	2.431266
4.031000	2.423519
4.032000	2.421582
4.033000	2.423196
4.034000	2.425456
4.035000	2.427715
4.036000	2.429652
4.037000	2.431912
4.038000	2.439336
4.039000	2.450635
4.040000	2.462256
4.041000	2.470972
4.042000	2.477750
4.043000	2.483238
4.044000	2.487435
4.045000	2.489694
4.046000	2.491954
4.047000	2.492600
4.048000	2.493891
4.049000	2.495505
4.050000	2.498087
4.051000	2.498410
4.052000	2.493245
4.053000	2.486143
4.054000	2.478073
4.055000	2.472263
4.056000	2.466452
4.057000	2.460642
4.058000	2.456122
4.059000	2.453217
4.060000	2.451603
4.061000	2.452249
4.062000	2.450635
4.063000	2.449343
4.064000	2.448052
4.065000	2.449021
4.066000	2.451926
4.067000	2.451926
4.068000	2.452249
4.069000	2.452894
4.070000	2.454831
4.071000	2.456122
4.072000	2.456768
4.073000	2.459028
4.074000	2.461287
4.075000	2.461610
4.076000	2.462579
4.077000	2.462579
4.078000	2.464838
4.079000	2.466452
4.080000	2.469035
4.081000	2.473877
4.082000	2.482915
4.083000	2.493891
4.084000	2.500347
4.085000	2.503575
4.086000	2.502284
4.087000	2.499379
4.088000	2.494859
4.089000	2.491631
4.090000	2.488080
4.091000	2.492922
4.092000	2.505835
4.093000	2.524235
4.094000	2.542958
4.095000	2.556838
4.096000	2.558775
4.097000	2.545863
4.098000	2.522944
4.099000	2.493568
4.100000	2.463224
4.101000	2.437077
4.102000	2.414157
4.103000	2.391561
4.104000	2.373806
4.105000	2.362508
4.106000	2.361863
4.107000	2.371547
4.108000	2.385428
4.109000	2.397694
4.110000	2.406087
4.111000	2.413189
4.112000	2.422228
4.113000	2.429652
4.114000	2.437077
4.115000	2.443856
4.116000	2.450957
4.117000	2.457414
4.118000	2.460964
4.119000	2.463224
4.120000	2.464838
4.121000	2.468712
4.122000	2.474200
4.123000	2.472908
4.124000	2.469680
4.125000	2.463870
4.126000	2.457414
4.127000	2.451926
4.128000	2.451926
4.129000	2.453863
4.130000	2.460964
4.131000	2.470326
4.132000	2.483561
4.133000	2.499379
4.134000	2.514551
4.135000	2.527140
4.136000	2.531014
4.137000	2.528431
4.138000	2.520361
4.139000	2.510031
4.140000	2.496473
4.141000	2.480010
4.142000	2.462256
4.143000	2.443533
4.144000	2.427392
4.145000	2.416417
4.146000	2.414480
4.147000	2.423519
4.148000	2.437077
4.149000	2.449989
4.150000	2.454508
4.151000	2.450957
4.152000	2.448052
4.153000	2.445470
4.154000	2.438368
4.155000	2.432557
4.156000	2.429652
4.157000	2.428038
4.158000	2.426747
4.159000	2.427715
4.160000	2.429975
4.161000	2.432235
4.162000	2.432880
4.163000	2.429975
4.164000	2.429329
4.165000	2.436754
4.166000	2.449021
4.167000	2.464193
4.168000	2.478719
4.169000	2.487757
4.170000	2.494536
4.171000	2.496473
4.172000	2.493568
4.173000	2.489049
4.174000	2.485821
4.175000	2.483561
4.176000	2.476459
4.177000	2.469680
4.178000	2.465161
4.179000	2.465484
4.180000	2.470649
4.181000	2.476459
4.182000	2.482270
4.183000	2.487435
4.184000	2.492600
4.185000	2.493245
4.186000	2.491308
4.187000	2.480333
4.188000	2.462901
4.189000	2.439336
4.190000	2.418999
4.191000	2.399308
4.192000	2.381231
4.193000	2.367027
4.194000	2.363477
4.195000	2.371547
4.196000	2.391238
4.197000	2.420614
4.198000	2.453540
4.199000	2.480333
4.200000	2.494536
4.201000	2.493891
4.202000	2.484852
4.203000	2.471940
4.204000	2.453217
4.205000	2.430943
4.206000	2.410929
4.207000	2.396726
4.208000	2.389301
4.209000	2.390915
4.210000	2.404796
4.211000	2.428361
4.212000	2.456768
4.213000	2.483238
4.214000	2.496796
4.215000	2.499056
4.216000	2.491954
4.217000	2.477750
4.218000	2.463870
4.219000	2.459350
4.220000	2.457414
4.221000	2.452571
4.222000	2.448698
4.223000	2.448052
4.224000	2.446115
4.225000	2.442242
4.226000	2.437400
4.227000	2.430298
4.228000	2.425456
4.229000	2.425456
4.230000	2.430298
4.231000	2.437722
4.232000	2.441919
4.233000	2.440950
4.234000	2.442242
4.235000	2.441919
4.236000	2.439336
4.237000	2.441596
4.238000	2.451280
4.239000	2.468066
4.240000	2.490986
4.241000	2.512291
4.242000	2.519715
4.243000	2.509386
4.244000	2.486789
4.245000	2.457091
4.246000	2.428684
4.247000	2.411252
4.248000	2.406410
4.249000	2.408992
4.250000	2.408347
4.251000	2.407701
4.252000	2.409315
4.253000	2.412543
4.254000	2.414803
4.255000	2.416094
4.256000	2.422228
4.257000	2.432235
4.258000	2.445793
4.259000	2.457091
4.260000	2.469035
4.261000	2.476459
4.262000	2.475814
4.263000	2.469035
4.264000	2.457091
4.265000	2.445147
4.266000	2.438045
4.267000	2.437400
4.268000	2.438045
4.269000	2.436108
4.270000	2.430298
4.271000	2.419645
4.272000	2.401245
4.273000	2.379617
4.274000	2.365413
4.275000	2.364445
4.276000	2.373161
4.277000	2.387687
4.278000	2.405764
4.279000	2.426747
4.280000	2.444178
4.281000	2.454186
4.282000	2.460964
4.283000	2.467421
4.284000	2.480979
4.285000	2.502284
4.286000	2.528108
4.287000	2.554579
4.288000	2.576852
4.289000	2.586859
4.290000	2.597189
4.291000	2.608488
4.292000	2.608488
4.293000	2.602354
4.294000	2.602031
4.295000	2.606551
4.296000	2.610102
4.297000	2.612361
4.298000	2.614944
4.299000	2.619140
4.300000	2.613330
4.301000	2.586859
4.302000	2.553287
4.303000	2.530691
4.304000	2.523589
4.305000	2.525526
4.306000	2.539407
4.307000	2.558130
4.308000	2.574270
4.309000	2.590410
4.310000	2.608810
4.311000	2.632698
4.312000	2.649807
4.313000	2.658845
4.314000	2.667561
4.315000	2.668853
4.316000	2.654972
4.317000	2.629147
4.318000	2.595898
4.319000	2.551028
4.320000	2.491631
4.321000	2.430943
4.322000	2.385105
4.323000	2.354761
4.324000	2.327968
4.325000	2.312796
4.326000	2.309245
4.327000	2.320220
4.328000	2.343463
4.329000	2.378326
4.330000	2.420936
4.331000	2.450635
4.332000	2.473554
4.333000	2.508094
4.334000	2.549091
4.335000	2.591379
4.336000	2.632052
4.337000	2.674017
4.338000	2.706944
4.339000	2.718888
4.340000	2.704684
4.341000	2.675309
4.342000	2.644319
4.343000	2.609133
4.344000	2.562649
4.345000	2.499056
4.346000	2.438045
4.347000	2.390270
4.348000	2.360894
4.349000	2.354761
4.350000	2.367996
4.351000	2.381554
4.352000	2.394466
4.353000	2.409961
4.354000	2.429329
4.355000	2.452249
4.356000	2.485175
4.357000	2.526172
4.358000	2.559098
4.359000	2.577498
4.360000	2.572656
4.361000	2.553933
4.362000	2.537793
4.363000	2.533596
4.364000	2.538438
4.365000	2.548768
4.366000	2.560389
4.367000	2.575561
4.368000	2.597189
4.369000	2.621077
4.370000	2.626242
4.371000	2.603645
4.372000	2.582986
4.373000	2.578466
4.374000	2.584277
4.375000	2.600417
4.376000	2.614298
4.377000	2.633344
4.378000	2.662719
4.379000	2.689512
4.380000	2.716305
4.381000	2.737933
4.382000	2.746004
4.383000	2.737611
4.384000	2.720179
4.385000	2.705007
4.386000	2.695646
4.387000	2.677891
4.388000	2.650775
4.389000	2.632375
4.390000	2.618495
4.391000	2.606228
4.392000	2.601063
4.393000	2.599772
4.394000	2.610102
4.395000	2.631407
4.396000	2.657554
4.397000	2.672726
4.398000	2.668530
4.399000	2.639800
4.400000	2.602677
4.401000	2.570719
4.402000	2.540375
4.403000	2.518101
4.404000	2.490340
4.405000	2.464193
4.406000	2.451603
4.407000	2.454186
4.408000	2.462579
4.409000	2.477428
4.410000	2.505512
4.411000	2.539730
4.412000	2.580726
4.413000	2.621077
4.414000	2.654649
4.415000	2.668853
4.416000	2.649484
4.417000	2.611716
4.418000	2.583631
4.419000	2.570073
4.420000	2.570396
4.421000	2.588151
4.422000	2.622691
4.423000	2.669175
4.424000	2.721793
4.425000	2.763758
4.426000	2.781512
4.427000	2.784095
4.428000	2.786354
4.429000	2.802818
4.430000	2.829288
4.431000	2.860923
4.432000	2.878677
4.433000	2.861569
4.434000	2.797007
4.435000	2.702747
4.436000	2.611393
4.437000	2.556516
4.438000	2.541344
4.439000	2.559098
4.440000	2.596866
4.441000	2.638186
4.442000	2.680151
4.443000	2.712754
4.444000	2.708881
4.445000	2.675631
4.446000	2.643351
4.447000	2.626888
4.448000	2.618172
4.449000	2.606873
4.450000	2.586859
4.451000	2.566845
4.452000	2.558130
4.453000	2.562649
4.454000	2.600417
4.455000	2.668530
4.456000	2.726958
4.457000	2.759884
4.458000	2.771183
4.459000	2.762144
4.460000	2.740193
4.461000	2.717919
4.462000	2.702425
4.463000	2.683056
4.464000	2.648516
4.465000	2.616558
4.466000	2.611393
4.467000	2.637540
4.468000	2.690481
4.469000	2.744712
4.470000	2.799912
4.471000	2.866734
4.472000	2.927744
4.473000	2.961639
4.474000	2.976811
4.475000	2.977779
4.476000	2.958734
4.477000	2.921934
4.478000	2.873512
4.479000	2.809919
4.480000	2.738902
4.481000	2.668853
4.482000	2.595252
4.483000	2.540052
4.484000	2.503252
4.485000	2.483884
4.486000	2.496796
4.487000	2.547154
4.488000	2.604937
4.489000	2.661428
4.490000	2.711786
4.491000	2.753751
4.492000	2.791197
4.493000	2.814762
4.494000	2.802172
4.495000	2.757947
4.496000	2.707912
4.497000	2.676600
4.498000	2.655295
4.499000	2.644319
4.500000	2.652389
4.501000	2.688544
4.502000	2.748263
4.503000	2.818958
4.504000	2.897077
4.505000	2.990369
4.506000	3.076236
4.507000	3.131759
4.508000	3.149513
4.509000	3.115295
4.510000	3.054608
4.511000	2.979071
4.512000	2.880291
4.513000	2.788614
4.514000	2.710172
4.515000	2.633021
4.516000	2.558452
4.517000	2.488403
4.518000	2.436108
4.519000	2.402536
4.520000	2.389301
4.521000	2.408992
4.522000	2.479687
4.523000	2.602354
4.524000	2.755042
4.525000	2.919997
4.526000	3.049443
4.527000	3.106580
4.528000	3.094313
4.529000	3.043309
4.530000	2.966804
4.531000	2.874481
4.532000	2.774733
4.533000	2.684670
4.534000	2.617203
4.535000	2.575238
4.536000	2.556193
4.537000	2.563940
4.538000	2.601063
4.539000	2.648838
4.540000	2.701456
4.541000	2.748263
4.542000	2.777961
4.543000	2.796361
4.544000	2.803463
4.545000	2.800235
4.546000	2.791842
4.547000	2.788937
4.548000	2.779898
4.549000	2.764726
4.550000	2.746326
4.551000	2.735351
4.552000	2.732123
4.553000	2.743744
4.554000	2.762790
4.555000	2.787968
4.556000	2.819926
4.557000	2.858341
4.558000	2.891267
4.559000	2.923548
4.560000	2.955506
4.561000	2.984881
4.562000	3.011997
4.563000	3.029106
4.564000	3.021036
4.565000	2.997148
4.566000	2.975197
4.567000	2.954537
4.568000	2.930649
4.569000	2.897400
4.570000	2.850916
4.571000	2.798944
4.572000	2.750523
4.573000	2.706298
4.574000	2.666593
4.575000	2.636572
4.576000	2.622691
4.577000	2.626888
4.578000	2.646256
4.579000	2.676600
4.580000	2.706621
4.581000	2.733091
4.582000	2.757302
4.583000	2.778930
4.584000	2.797653
4.585000	2.809274
4.586000	2.814439
4.587000	2.815084
4.588000	2.810242
4.589000	2.804109
4.590000	2.800235
4.591000	2.800558
4.592000	2.807660
4.593000	2.821218
4.594000	2.832516
4.595000	2.836067
4.596000	2.836067
4.597000	2.838004
4.598000	2.840909
4.599000	2.840909
4.600000	2.830256
4.601000	2.815084
4.602000	2.799267
4.603000	2.788937
4.604000	2.784095
4.605000	2.785709
4.606000	2.791197
4.607000	2.802495
4.608000	2.819281
4.609000	2.842846
4.610000	2.868993
4.611000	2.891267
4.612000	2.902888
4.613000	2.901597
4.614000	2.892558
4.615000	2.876095
4.616000	2.854790
4.617000	2.838649
4.618000	2.827997
4.619000	2.818312
4.620000	2.811856
4.621000	2.809597
4.622000	2.812502
4.623000	2.816698
4.624000	2.822509
4.625000	2.831548
4.626000	2.847688
4.627000	2.866411
4.628000	2.883520
4.629000	2.896109
4.630000	2.906762
4.631000	2.916446
4.632000	2.931295
4.633000	2.943885
4.634000	2.949372
4.635000	2.949049
4.636000	2.945176
4.637000	2.938074
4.638000	2.929358
4.639000	2.925807
4.640000	2.922902
4.641000	2.920320
4.642000	2.912249
4.643000	2.900628
4.644000	2.886425
4.645000	2.870284
4.646000	2.857049
4.647000	2.850270
4.648000	2.852207
4.649000	2.859955
4.650000	2.868993
4.651000	2.878032
4.652000	2.888362
4.653000	2.895463
4.654000	2.897723
4.655000	2.896755
4.656000	2.894495
4.657000	2.888362
4.658000	2.875127
4.659000	2.856726
4.660000	2.836712
4.661000	2.818958
4.662000	2.803463
4.663000	2.792811
4.664000	2.788291
4.665000	2.787646
4.666000	2.788614
4.667000	2.790228
4.668000	2.800235
4.669000	2.809919
4.670000	2.818958
4.671000	2.828642
4.672000	2.836712
4.673000	2.841877
4.674000	2.841877
4.675000	2.840263
4.676000	2.838649
4.677000	2.838972
4.678000	2.836712
4.679000	2.835098
4.680000	2.833807
4.681000	2.832839
4.682000	2.833807
4.683000	2.836067
4.684000	2.836712
4.685000	2.836712
4.686000	2.837035
4.687000	2.835744
4.688000	2.831870
4.689000	2.825737
4.690000	2.821218
4.691000	2.818312
4.692000	2.817021
4.693000	2.814439
4.694000	2.813147
4.695000	2.814116
4.696000	2.816053
4.697000	2.815730
4.698000	2.813470
4.699000	2.811856
4.700000	2.808628
4.701000	2.809274
4.702000	2.810242
4.703000	2.807983
4.704000	2.805723
4.705000	2.803463
4.706000	2.802172
4.707000	2.800558
4.708000	2.798944
4.709000	2.796684
4.710000	2.793133
4.711000	2.787968
4.712000	2.784095
4.713000	2.782158
4.714000	2.779898
4.715000	2.777961
4.716000	2.776025
4.717000	2.776347
4.718000	2.777639
4.719000	2.780221
4.720000	2.783126
4.721000	2.786677
4.722000	2.788291
4.723000	2.789260
4.724000	2.788937
4.725000	2.787000
4.726000	2.783126
4.727000	2.781835
4.728000	2.783126
4.729000	2.785386
4.730000	2.787000
4.731000	2.783449
4.732000	2.778607
4.733000	2.775056
4.734000	2.771505
4.735000	2.767309
4.736000	2.764081
4.737000	2.763758
4.738000	2.768277
4.739000	2.773765
4.740000	2.780221
4.741000	2.783772
4.742000	2.784418
4.743000	2.784418
4.744000	2.783126
4.745000	2.782158
4.746000	2.781835
4.747000	2.783449
4.748000	2.786032
4.749000	2.790228
4.750000	2.796361
4.751000	2.800558
4.752000	2.805723
4.753000	2.806691
4.754000	2.800235
4.755000	2.788614
4.756000	2.775702
4.757000	2.760207
4.758000	2.743098
4.759000	2.724375
4.760000	2.710817
4.761000	2.702425
4.762000	2.701133
4.763000	2.704039
4.764000	2.706621
4.765000	2.708235
4.766000	2.712432
4.767000	2.719533
4.768000	2.725667
4.769000	2.728249
4.770000	2.727926
4.771000	2.728249
4.772000	2.728572
4.773000	2.730186
4.774000	2.732123
4.775000	2.733414
4.776000	2.735028
4.777000	2.737288
4.778000	2.737933
4.779000	2.741484
4.780000	2.744712
4.781000	2.747940
4.782000	2.743744
4.783000	2.733737
4.784000	2.723730
4.785000	2.716628
4.786000	2.711140
4.787000	2.708558
4.788000	2.705007
4.789000	2.704039
4.790000	2.702425
4.791000	2.702747
4.792000	2.704361
4.793000	2.707267
4.794000	2.709203
4.795000	2.708235
4.796000	2.706944
4.797000	2.706298
4.798000	2.705975
4.799000	2.705007
4.800000	2.702102
4.801000	2.699519
4.802000	2.695968
4.803000	2.693063
4.804000	2.691772
4.805000	2.690803
4.806000	2.694354
4.807000	2.694677
4.808000	2.692095
4.809000	2.689835
4.810000	2.689835
4.811000	2.691772
4.812000	2.694032
4.813000	2.694677
4.814000	2.697905
4.815000	2.699519
4.816000	2.701456
4.817000	2.699842
4.818000	2.695968
4.819000	2.692740
4.820000	2.689835
4.821000	2.684347
4.822000	2.677246
4.823000	2.674340
4.824000	2.675309
4.825000	2.679828
4.826000	2.684993
4.827000	2.689512
4.828000	2.693386
4.829000	2.697260
4.830000	2.698874
4.831000	2.699196
4.832000	2.700810
4.833000	2.701779
4.834000	2.702425
4.835000	2.703716
4.836000	2.705007
4.837000	2.703070
4.838000	2.698551
4.839000	2.694677
4.840000	2.691772
4.841000	2.690481
4.842000	2.689512
4.843000	2.688221
4.844000	2.688221
4.845000	2.685639
4.846000	2.683379
4.847000	2.682088
4.848000	2.678214
4.849000	2.674017
4.850000	2.667561
4.851000	2.662074
4.852000	2.657231
4.853000	2.653358
4.854000	2.652389
4.855000	2.653035
4.856000	2.653035
4.857000	2.653358
4.858000	2.650452
4.859000	2.645933
4.860000	2.642059
4.861000	2.638509
4.862000	2.635603
4.863000	2.633021
4.864000	2.630116
4.865000	2.627856
4.866000	2.628179
4.867000	2.630438
4.868000	2.633021
4.869000	2.639477
4.870000	2.646256
4.871000	2.650130
4.872000	2.651421
4.873000	2.654326
4.874000	2.658200
4.875000	2.657877
4.876000	2.655940
4.877000	2.649484
4.878000	2.643996
4.879000	2.639154
4.880000	2.633666
4.881000	2.628502
4.882000	2.624951
4.883000	2.621400
4.884000	2.617203
4.885000	2.615266
4.886000	2.615589
4.887000	2.619140
4.888000	2.625274
4.889000	2.630116
4.890000	2.631407
4.891000	2.632052
4.892000	2.632698
4.893000	2.633989
4.894000	2.637540
4.895000	2.637540
4.896000	2.632052
4.897000	2.621400
4.898000	2.615912
4.899000	2.619140
4.900000	2.623982
4.901000	2.627210
4.902000	2.628824
4.903000	2.628824
4.904000	2.626888
4.905000	2.626242
4.906000	2.628179
4.907000	2.629470
4.908000	2.631407
4.909000	2.633021
4.910000	2.632375
4.911000	2.629147
4.912000	2.626242
4.913000	2.624305
4.914000	2.623982
4.915000	2.624305
4.916000	2.625274
4.917000	2.627210
4.918000	2.630116
4.919000	2.634958
4.920000	2.636895
4.921000	2.634312
4.922000	2.627856
4.923000	2.623014
4.924000	2.620431
4.925000	2.617203
4.926000	2.612684
4.927000	2.609779
4.928000	2.608810
4.929000	2.610424
4.930000	2.612038
4.931000	2.610424
4.932000	2.607196
4.933000	2.605582
4.934000	2.604291
4.935000	2.602354
4.936000	2.599126
4.937000	2.595898
4.938000	2.592347
4.939000	2.590410
4.940000	2.588796
4.941000	2.588796
4.942000	2.590733
4.943000	2.592024
4.944000	2.592993
4.945000	2.594607
4.946000	2.597512
4.947000	2.601063
4.948000	2.605905
4.949000	2.613330
4.950000	2.618172
4.951000	2.618495
4.952000	2.616235
4.953000	2.616235
4.954000	2.618495
4.955000	2.619140
4.956000	2.620109
4.957000	2.619140
4.958000	2.609779
4.959000	2.596544
4.960000	2.580080
4.961000	2.566523
4.962000	2.557484
4.963000	2.552319
4.964000	2.548123
4.965000	2.545217
4.966000	2.548445
4.967000	2.554579
4.968000	2.560712
4.969000	2.568459
4.970000	2.575561
4.971000	2.577175
4.972000	2.575561
4.973000	2.574270
4.974000	2.575238
4.975000	2.579758
4.976000	2.583631
4.977000	2.582663
4.978000	2.580080
4.979000	2.576852
4.980000	2.572979
4.981000	2.569105
4.982000	2.562003
4.983000	2.555547
4.984000	2.552319
4.985000	2.553287
4.986000	2.555870
4.987000	2.560066
4.988000	2.561358
4.989000	2.560066
4.990000	2.561358
4.991000	2.567814
4.992000	2.573947
4.993000	2.577821
4.994000	2.578144
4.995000	2.573947
4.996000	2.567814
4.997000	2.554256
4.998000	2.535856
4.999000	2.519393
5.000000	2.510031
5.001000	2.504221
5.002000	2.500024
5.003000	2.499056
5.004000	2.501315
5.005000	2.504866
5.006000	2.502929
5.007000	2.501638
5.008000	2.504543
5.009000	2.513905
5.010000	2.526494
5.011000	2.535856
5.012000	2.537793
5.013000	2.532305
5.014000	2.524558
5.015000	2.519070
5.016000	2.514228
5.017000	2.504866
5.018000	2.492922
5.019000	2.482915
5.020000	2.476782
5.021000	2.476136
5.022000	2.486789
5.023000	2.504221
5.024000	2.515196
5.025000	2.522944
5.026000	2.526172
5.027000	2.525203
5.028000	2.520684
5.029000	2.513905
5.030000	2.507449
5.031000	2.497765
5.032000	2.489372
5.033000	2.479687
5.034000	2.472908
5.035000	2.465807
5.036000	2.459028
5.037000	2.460964
5.038000	2.472908
5.039000	2.486789
5.040000	2.499379
5.041000	2.507126
5.042000	2.514228
5.043000	2.520361
5.044000	2.525203
5.045000	2.526817
5.046000	2.526172
5.047000	2.521007
5.048000	2.514228
5.049000	2.505512
5.050000	2.498410
5.051000	2.495182
5.052000	2.492277
5.053000	2.486466
5.054000	2.484207
5.055000	2.486143
5.056000	2.489694
5.057000	2.494859
5.058000	2.499056
5.059000	2.500347
5.060000	2.499056
5.061000	2.495182
5.062000	2.487112
5.063000	2.476459
5.064000	2.465161
5.065000	2.456122
5.066000	2.447084
5.067000	2.438691
5.068000	2.433526
5.069000	2.428361
5.070000	2.418999
5.071000	2.408992
5.072000	2.403182
5.073000	2.405764
5.074000	2.412543
5.075000	2.426424
5.076000	2.440950
5.077000	2.454186
5.078000	2.461287
5.079000	2.462256
5.080000	2.456122
5.081000	2.452571
5.082000	2.452571
5.083000	2.455154
5.084000	2.459350
5.085000	2.464515
5.086000	2.469035
5.087000	2.470326
5.088000	2.460642
5.089000	2.446438
5.090000	2.436108
5.091000	2.433203
5.092000	2.433526
5.093000	2.439336
5.094000	2.448698
5.095000	2.453540
5.096000	2.456122
5.097000	2.457091
5.098000	2.456768
5.099000	2.456445
5.100000	2.456768
5.101000	2.458059
5.102000	2.463870
5.103000	2.473231
5.104000	2.482270
5.105000	2.487435
5.106000	2.487112
5.107000	2.481301
5.108000	2.468712
5.109000	2.449989
5.110000	2.428038
5.111000	2.405764
5.112000	2.392206
5.113000	2.391561
5.114000	2.397371
5.115000	2.408024
5.116000	2.422873
5.117000	2.439982
5.118000	2.453863
5.119000	2.465161
5.120000	2.471940
5.121000	2.474845
5.122000	2.473231
5.123000	2.465161
5.124000	2.455154
5.125000	2.443533
5.126000	2.428038
5.127000	2.411575
5.128000	2.401891
5.129000	2.403505
5.130000	2.418031
5.131000	2.437722
5.132000	2.456768
5.133000	2.470972
5.134000	2.479042
5.135000	2.482593
5.136000	2.482270
5.137000	2.480656
5.138000	2.474845
5.139000	2.463870
5.140000	2.451603
5.141000	2.438045
5.142000	2.425778
5.143000	2.416417
5.144000	2.408670
5.145000	2.404473
5.146000	2.401568
5.147000	2.399954
5.148000	2.400277
5.149000	2.403182
5.150000	2.409638
5.151000	2.414157
5.152000	2.418677
5.153000	2.422228
5.154000	2.422873
5.155000	2.424164
5.156000	2.424487
5.157000	2.425133
5.158000	2.427392
5.159000	2.429975
5.160000	2.436431
5.161000	2.442887
5.162000	2.449343
5.163000	2.453863
5.164000	2.456768
5.165000	2.455154
5.166000	2.450635
5.167000	2.444824
5.168000	2.440628
5.169000	2.438691
5.170000	2.441919
5.171000	2.452571
5.172000	2.466129
5.173000	2.481301
5.174000	2.495505
5.175000	2.503898
5.176000	2.505189
5.177000	2.500993
5.178000	2.495828
5.179000	2.489372
5.180000	2.486143
5.181000	2.483884
5.182000	2.481624
5.183000	2.478073
5.184000	2.478719
5.185000	2.480656
5.186000	2.475814
5.187000	2.463870
5.188000	2.449021
5.189000	2.432235
5.190000	2.418354
5.191000	2.408670
5.192000	2.402214
5.193000	2.397049
5.194000	2.394143
5.195000	2.395435
5.196000	2.399631
5.197000	2.407701
5.198000	2.417385
5.199000	2.428038
5.200000	2.434171
5.201000	2.439659
5.202000	2.440628
5.203000	2.439014
5.204000	2.440305
5.205000	2.446438
5.206000	2.448052
5.207000	2.448375
5.208000	2.452249
5.209000	2.460319
5.210000	2.464515
5.211000	2.467421
5.212000	2.471617
5.213000	2.477750
5.214000	2.480656
5.215000	2.479687
5.216000	2.474845
5.217000	2.460964
5.218000	2.444501
5.219000	2.432557
5.220000	2.426101
5.221000	2.424810
5.222000	2.425133
5.223000	2.427070
5.224000	2.427070
5.225000	2.428038
5.226000	2.428684
5.227000	2.429007
5.228000	2.426101
5.229000	2.420936
5.230000	2.417063
5.231000	2.417385
5.232000	2.421905
5.233000	2.433526
5.234000	2.446115
5.235000	2.458705
5.236000	2.468389
5.237000	2.474200
5.238000	2.475491
5.239000	2.472586
5.240000	2.470326
5.241000	2.467098
5.242000	2.462256
5.243000	2.455800
5.244000	2.445793
5.245000	2.437400
5.246000	2.437722
5.247000	2.445793
5.248000	2.457091
5.249000	2.465161
5.250000	2.475814
5.251000	2.494859
5.252000	2.522944
5.253000	2.549091
5.254000	2.569105
5.255000	2.584277
5.256000	2.591379
5.257000	2.582663
5.258000	2.568459
5.259000	2.557484
5.260000	2.551673
5.261000	2.548123
5.262000	2.546508
5.263000	2.541989
5.264000	2.528431
5.265000	2.508094
5.266000	2.488080
5.267000	2.470326
5.268000	2.451603
5.269000	2.431912
5.270000	2.413835
5.271000	2.397371
5.272000	2.389301
5.273000	2.391238
5.274000	2.398017
5.275000	2.410929
5.276000	2.427715
5.277000	2.447084
5.278000	2.469357
5.279000	2.485498
5.280000	2.496473
5.281000	2.503898
5.282000	2.509386
5.283000	2.510354
5.284000	2.506480
5.285000	2.500993
5.286000	2.497442
5.287000	2.497119
5.288000	2.499379
5.289000	2.501961
5.290000	2.505835
5.291000	2.509063
5.292000	2.509386
5.293000	2.506480
5.294000	2.497119
5.295000	2.487757
5.296000	2.479365
5.297000	2.476136
5.298000	2.477105
5.299000	2.481624
5.300000	2.485498
5.301000	2.492277
5.302000	2.501638
5.303000	2.512936
5.304000	2.523589
5.305000	2.533596
5.306000	2.540375
5.307000	2.545217
5.308000	2.551028
5.309000	2.551351
5.310000	2.549414
5.311000	2.548445
5.312000	2.545540
5.313000	2.543926
5.314000	2.544894
5.315000	2.544572
5.316000	2.542635
5.317000	2.540375
5.318000	2.540698
5.319000	2.548123
5.320000	2.561358
5.321000	2.573624
5.322000	2.581049
5.323000	2.582340
5.324000	2.580080
5.325000	2.573624
5.326000	2.566523
5.327000	2.555870
5.328000	2.544572
5.329000	2.535856
5.330000	2.530691
5.331000	2.525203
5.332000	2.520684
5.333000	2.514873
5.334000	2.511645
5.335000	2.511645
5.336000	2.511968
5.337000	2.511645
5.338000	2.503575
5.339000	2.490986
5.340000	2.483884
5.341000	2.482593
5.342000	2.489372
5.343000	2.500347
5.344000	2.514551
5.345000	2.530691
5.346000	2.545540
5.347000	2.555870
5.348000	2.569751
5.349000	2.589765
5.350000	2.612361
5.351000	2.629147
5.352000	2.639800
5.353000	2.641737
5.354000	2.640768
5.355000	2.638509
5.356000	2.633344
5.357000	2.627210
5.358000	2.618495
5.359000	2.611393
5.360000	2.605905
5.361000	2.597835
5.362000	2.591702
5.363000	2.586214
5.364000	2.577821
5.365000	2.570719
5.366000	2.562972
5.367000	2.559421
5.368000	2.559098
5.369000	2.552642
5.370000	2.539407
5.371000	2.534887
5.372000	2.542312
5.373000	2.554901
5.374000	2.572333
5.375000	2.593638
5.376000	2.609456
5.377000	2.622045
5.378000	2.639154
5.379000	2.661105
5.380000	2.684670
5.381000	2.705330
5.382000	2.718888
5.383000	2.726635
5.384000	2.722116
5.385000	2.718242
5.386000	2.718242
5.387000	2.722116
5.388000	2.724053
5.389000	2.723407
5.390000	2.722761
5.391000	2.721793
5.392000	2.721793
5.393000	2.724698
5.394000	2.729540
5.395000	2.744712
5.396000	2.764726
5.397000	2.777961
5.398000	2.773442
5.399000	2.758593
5.400000	2.737933
5.401000	2.717274
5.402000	2.702102
5.403000	2.690158
5.404000	2.686607
5.405000	2.680796
5.406000	2.654972
5.407000	2.615912
5.408000	2.592347
5.409000	2.586537
5.410000	2.585245
5.411000	2.577821
5.412000	2.573624
5.413000	2.594284
5.414000	2.634958
5.415000	2.686930
5.416000	2.746004
5.417000	2.796039
5.418000	2.815730
5.419000	2.797976
5.420000	2.759884
5.421000	2.721793
5.422000	2.688867
5.423000	2.653681
5.424000	2.620754
5.425000	2.599772
5.426000	2.594930
5.427000	2.610747
5.428000	2.650130
5.429000	2.706621
5.430000	2.764726
5.431000	2.810888
5.432000	2.848979
5.433000	2.881260
5.434000	2.899660
5.435000	2.898369
5.436000	2.878677
5.437000	2.848334
5.438000	2.810565
5.439000	2.763758
5.440000	2.710817
5.441000	2.669498
5.442000	2.617203
5.443000	2.551673
5.444000	2.490340
5.445000	2.433526
5.446000	2.382199
5.447000	2.337975
5.448000	2.314410
5.449000	2.319575
5.450000	2.343463
5.451000	2.374775
5.452000	2.408347
5.453000	2.456122
5.454000	2.509386
5.455000	2.559098
5.456000	2.607519
5.457000	2.655295
5.458000	2.697582
5.459000	2.729863
5.460000	2.751814
5.461000	2.760207
5.462000	2.760207
5.463000	2.760530
5.464000	2.762144
5.465000	2.764404
5.466000	2.773119
5.467000	2.775379
5.468000	2.767309
5.469000	2.746004
5.470000	2.707267
5.471000	2.651744
5.472000	2.598158
5.473000	2.562972
5.474000	2.550382
5.475000	2.558452
5.476000	2.571365
5.477000	2.590733
5.478000	2.618172
5.479000	2.648516
5.480000	2.681119
5.481000	2.706298
5.482000	2.725021
5.483000	2.734382
5.484000	2.725667
5.485000	2.710172
5.486000	2.708235
5.487000	2.731154
5.488000	2.767954
5.489000	2.798621
5.490000	2.817990
5.491000	2.831548
5.492000	2.848979
5.493000	2.882874
5.494000	2.914832
5.495000	2.924839
5.496000	2.916123
5.497000	2.888684
5.498000	2.835421
5.499000	2.757302
5.500000	2.676923
5.501000	2.612361
5.502000	2.559421
5.503000	2.512614
5.504000	2.474845
5.505000	2.452894
5.506000	2.447407
5.507000	2.461933
5.508000	2.493568
5.509000	2.543280
5.510000	2.595898
5.511000	2.649484
5.512000	2.697260
5.513000	2.736642
5.514000	2.775702
5.515000	2.814762
5.516000	2.840909
5.517000	2.843169
5.518000	2.828319
5.519000	2.814439
5.520000	2.801849
5.521000	2.792811
5.522000	2.781835
5.523000	2.780867
5.524000	2.788614
5.525000	2.791519
5.526000	2.787968
5.527000	2.780867
5.528000	2.779253
5.529000	2.766018
5.530000	2.735674
5.531000	2.713723
5.532000	2.698551
5.533000	2.673049
5.534000	2.633344
5.535000	2.595575
5.536000	2.572656
5.537000	2.570396
5.538000	2.587505
5.539000	2.614621
5.540000	2.645933
5.541000	2.681765
5.542000	2.729863
5.543000	2.777316
5.544000	2.818958
5.545000	2.846397
5.546000	2.866734
5.547000	2.878677
5.548000	2.852207
5.549000	2.791842
5.550000	2.718565
5.551000	2.653681
5.552000	2.602354
5.553000	2.558775
5.554000	2.518747
5.555000	2.497119
5.556000	2.503575
5.557000	2.535210
5.558000	2.587828
5.559000	2.664979
5.560000	2.754397
5.561000	2.825414
5.562000	2.861246
5.563000	2.881905
5.564000	2.899660
5.565000	2.899014
5.566000	2.877386
5.567000	2.832516
5.568000	2.768923
5.569000	2.702747
5.570000	2.649807
5.571000	2.603323
5.572000	2.565554
5.573000	2.544572
5.574000	2.542635
5.575000	2.550382
5.576000	2.553610
5.577000	2.552319
5.578000	2.560389
5.579000	2.583954
5.580000	2.609779
5.581000	2.631407
5.582000	2.649807
5.583000	2.667884
5.584000	2.688221
5.585000	2.704039
5.586000	2.709526
5.587000	2.704361
5.588000	2.695646
5.589000	2.689835
5.590000	2.684347
5.591000	2.677246
5.592000	2.666916
5.593000	2.664333
5.594000	2.673372
5.595000	2.687253
5.596000	2.698551
5.597000	2.705975
5.598000	2.714368
5.599000	2.716305
5.600000	2.710817
5.601000	2.699196
5.602000	2.686284
5.603000	2.676923
5.604000	2.673372
5.605000	2.672726
5.606000	2.675309
5.607000	2.676277
5.608000	2.675309
5.609000	2.674340
5.610000	2.674340
5.611000	2.678214
5.612000	2.685639
5.613000	2.698874
5.614000	2.714046
5.615000	2.729540
5.616000	2.742130
5.617000	2.745681
5.618000	2.743421
5.619000	2.739870
5.620000	2.738579
5.621000	2.735351
5.622000	2.729218
5.623000	2.719210
5.624000	2.711140
5.625000	2.705975
5.626000	2.703393
5.627000	2.704039
5.628000	2.707267
5.629000	2.712754
5.630000	2.723730
5.631000	2.734382
5.632000	2.736965
5.633000	2.736965
5.634000	2.736965
5.635000	2.736319
5.636000	2.736965
5.637000	2.736642
5.638000	2.735996
5.639000	2.737288
5.640000	2.742775
5.641000	2.749554
5.642000	2.752782
5.643000	2.752782
5.644000	2.753105
5.645000	2.760207
5.646000	2.772797
5.647000	2.783772
5.648000	2.793779
5.649000	2.803463
5.650000	2.807660
5.651000	2.807014
5.652000	2.804109
5.653000	2.799590
5.654000	2.792811
5.655000	2.784418
5.656000	2.775702
5.657000	2.765695
5.658000	2.759561
5.659000	2.757625
5.660000	2.760530
5.661000	2.766340
5.662000	2.770214
5.663000	2.771828
5.664000	2.770214
5.665000	2.762467
5.666000	2.753428
5.667000	2.744389
5.668000	2.736642
5.669000	2.730832
5.670000	2.727603
5.671000	2.724053
5.672000	2.722439
5.673000	2.726312
5.674000	2.735028
5.675000	2.743421
5.676000	2.753751
5.677000	2.757302
5.678000	2.752782
5.679000	2.743098
5.680000	2.737933
5.681000	2.735028
5.682000	2.733737
5.683000	2.732446
5.684000	2.729218
5.685000	2.724698
5.686000	2.718565
5.687000	2.714046
5.688000	2.711140
5.689000	2.711140
5.690000	2.715660
5.691000	2.721470
5.692000	2.728572
5.693000	2.738579
5.694000	2.746972
5.695000	2.752137
5.696000	2.756011
5.697000	2.758270
5.698000	2.759884
5.699000	2.761821
5.700000	2.762790
5.701000	2.764404
5.702000	2.767954
5.703000	2.774411
5.704000	2.781190
5.705000	2.784095
5.706000	2.780867
5.707000	2.775056
5.708000	2.768277
5.709000	2.759884
5.710000	2.747618
5.711000	2.736642
5.712000	2.727603
5.713000	2.719533
5.714000	2.714691
5.715000	2.714046
5.716000	2.715014
5.717000	2.715660
5.718000	2.715660
5.719000	2.715982
5.720000	2.720179
5.721000	2.725989
5.722000	2.729540
5.723000	2.733414
5.724000	2.737288
5.725000	2.735351
5.726000	2.729540
5.727000	2.722761
5.728000	2.714368
5.729000	2.709849
5.730000	2.708235
5.731000	2.707589
5.732000	2.709849
5.733000	2.717596
5.734000	2.726635
5.735000	2.733414
5.736000	2.738579
5.737000	2.740516
5.738000	2.742130
5.739000	2.741484
5.740000	2.739870
5.741000	2.736642
5.742000	2.734705
5.743000	2.733091
5.744000	2.733091
5.745000	2.734060
5.746000	2.739547
5.747000	2.747940
5.748000	2.759239
5.749000	2.766340
5.750000	2.765695
5.751000	2.760207
5.752000	2.756656
5.753000	2.751814
5.754000	2.740516
5.755000	2.727926
5.756000	2.714368
5.757000	2.701456
5.758000	2.690158
5.759000	2.681442
5.760000	2.676277
5.761000	2.674986
5.762000	2.675631
5.763000	2.678537
5.764000	2.683379
5.765000	2.686930
5.766000	2.686284
5.767000	2.683379
5.768000	2.678214
5.769000	2.674340
5.770000	2.672726
5.771000	2.673372
5.772000	2.673695
5.773000	2.677891
5.774000	2.684347
5.775000	2.685961
5.776000	2.679828
5.777000	2.666916
5.778000	2.652712
5.779000	2.644319
5.780000	2.642059
5.781000	2.641091
5.782000	2.640768
5.783000	2.638509
5.784000	2.636895
5.785000	2.635926
5.786000	2.635603
5.787000	2.636895
5.788000	2.638509
5.789000	2.640445
5.790000	2.646256
5.791000	2.654972
5.792000	2.665624
5.793000	2.679505
5.794000	2.692095
5.795000	2.700810
5.796000	2.698874
5.797000	2.686284
5.798000	2.667238
5.799000	2.648838
5.800000	2.630761
5.801000	2.616558
5.802000	2.604291
5.803000	2.596866
5.804000	2.594284
5.805000	2.596221
5.806000	2.600740
5.807000	2.606228
5.808000	2.613007
5.809000	2.617526
5.810000	2.619463
5.811000	2.619786
5.812000	2.623982
5.813000	2.628824
5.814000	2.624305
5.815000	2.616881
5.816000	2.606228
5.817000	2.595575
5.818000	2.589442
5.819000	2.588796
5.820000	2.588473
5.821000	2.588796
5.822000	2.589119
5.823000	2.589119
5.824000	2.588151
5.825000	2.586214
5.826000	2.586537
5.827000	2.588473
5.828000	2.589442
5.829000	2.590087
5.830000	2.591379
5.831000	2.593638
5.832000	2.595252
5.833000	2.600095
5.834000	2.608810
5.835000	2.619463
5.836000	2.628179
5.837000	2.628824
5.838000	2.622691
5.839000	2.613330
5.840000	2.609779
5.841000	2.610747
5.842000	2.610747
5.843000	2.607196
5.844000	2.602031
5.845000	2.594930
5.846000	2.585891
5.847000	2.577498
5.848000	2.572333
5.849000	2.569105
5.850000	2.568459
5.851000	2.569751
5.852000	2.568137
5.853000	2.565877
5.854000	2.563617
5.855000	2.562003
5.856000	2.562972
5.857000	2.562003
5.858000	2.555224
5.859000	2.547477
5.860000	2.545540
5.861000	2.542958
5.862000	2.533273
5.863000	2.525526
5.864000	2.522944
5.865000	2.522621
5.866000	2.520361
5.867000	2.519070
5.868000	2.516810
5.869000	2.513905
5.870000	2.512614
5.871000	2.510354
5.872000	2.509386
5.873000	2.509063
5.874000	2.510031
5.875000	2.514551
5.876000	2.520361
5.877000	2.524558
5.878000	2.525849
5.879000	2.527786
5.880000	2.529722
5.881000	2.530691
5.882000	2.529400
5.883000	2.527140
5.884000	2.527140
5.885000	2.529722
5.886000	2.531337
5.887000	2.529722
5.888000	2.527140
5.889000	2.526172
5.890000	2.529077
5.891000	2.537470
5.892000	2.543280
5.893000	2.543926
5.894000	2.544572
5.895000	2.544894
5.896000	2.539730
5.897000	2.529077
5.898000	2.517133
5.899000	2.507449
5.900000	2.503575
5.901000	2.505189
5.902000	2.506803
5.903000	2.508094
5.904000	2.508417
5.905000	2.507126
5.906000	2.506158
5.907000	2.506480
5.908000	2.508417
5.909000	2.512291
5.910000	2.517779
5.911000	2.524558
5.912000	2.527786
5.913000	2.527786
5.914000	2.526172
5.915000	2.523266
5.916000	2.522298
5.917000	2.526494
5.918000	2.531659
5.919000	2.537147
5.920000	2.542958
5.921000	2.554579
5.922000	2.563617
5.923000	2.566523
5.924000	2.562003
5.925000	2.551996
5.926000	2.538438
5.927000	2.525526
5.928000	2.509386
5.929000	2.496473
5.930000	2.485175
5.931000	2.475814
5.932000	2.471294
5.933000	2.471617
5.934000	2.475168
5.935000	2.478719
5.936000	2.482593
5.937000	2.485821
5.938000	2.491954
5.939000	2.498733
5.940000	2.500670
5.941000	2.503898
5.942000	2.508417
5.943000	2.516165
5.944000	2.520038
5.945000	2.521329
5.946000	2.518747
5.947000	2.514873
5.948000	2.513905
5.949000	2.516487
5.950000	2.519393
5.951000	2.521652
5.952000	2.524235
5.953000	2.526494
5.954000	2.528431
5.955000	2.530691
5.956000	2.531014
5.957000	2.530368
5.958000	2.535210
5.959000	2.543603
5.960000	2.551028
5.961000	2.555547
5.962000	2.560066
5.963000	2.562003
5.964000	2.562003
5.965000	2.561035
5.966000	2.555870
5.967000	2.543926
5.968000	2.527140
5.969000	2.511322
5.970000	2.498410
5.971000	2.490340
5.972000	2.485498
5.973000	2.479687
5.974000	2.473877
5.975000	2.467421
5.976000	2.460642
5.977000	2.457091
5.978000	2.459673
5.979000	2.465807
5.980000	2.471617
5.981000	2.479687
5.982000	2.487112
5.983000	2.494859
5.984000	2.502284
5.985000	2.515842
5.986000	2.534887
5.987000	2.558452
5.988000	2.582663
5.989000	2.602677
5.990000	2.612361
5.991000	2.610102
5.992000	2.592993
5.993000	2.570719
5.994000	2.547154
5.995000	2.527463
5.996000	2.508740
5.997000	2.489049
5.998000	2.473877
5.999000	2.462256
6.000000	2.459028
6.001000	2.466129
6.002000	2.480333
6.003000	2.496473
6.004000	2.513905
6.005000	2.525526
6.006000	2.533596
6.007000	2.535533
6.008000	2.526817
6.009000	2.509386
6.010000	2.489049
6.011000	2.472263
6.012000	2.459350
6.013000	2.453540
6.014000	2.449989
6.015000	2.453863
6.016000	2.458382
6.017000	2.460964
6.018000	2.459028
6.019000	2.453540
6.020000	2.446438
6.021000	2.442564
6.022000	2.442242
6.023000	2.447084
6.024000	2.451280
6.025000	2.461933
6.026000	2.473231
6.027000	2.487112
6.028000	2.500993
6.029000	2.515519
6.030000	2.530691
6.031000	2.536501
6.032000	2.527786
6.033000	2.511322
6.034000	2.495505
6.035000	2.480979
6.036000	2.466452
6.037000	2.454186
6.038000	2.442242
6.039000	2.432880
6.040000	2.427392
6.041000	2.430298
6.042000	2.438045
6.043000	2.451603
6.044000	2.466129
6.045000	2.475814
6.046000	2.482593
6.047000	2.485498
6.048000	2.489372
6.049000	2.502284
6.050000	2.520038
6.051000	2.528754
6.052000	2.530045
6.053000	2.534887
6.054000	2.544894
6.055000	2.554901
6.056000	2.562003
6.057000	2.559421
6.058000	2.551996
6.059000	2.539084
6.060000	2.521007
6.061000	2.503575
6.062000	2.489694
6.063000	2.477105
6.064000	2.463870
6.065000	2.454186
6.066000	2.450312
6.067000	2.455800
6.068000	2.465807
6.069000	2.478396
6.070000	2.492922
6.071000	2.507772
6.072000	2.523912
6.073000	2.533919
6.074000	2.534887
6.075000	2.529722
6.076000	2.517456
6.077000	2.499379
6.078000	2.480656
6.079000	2.464515
6.080000	2.451603
6.081000	2.437400
6.082000	2.422873
6.083000	2.413835
6.084000	2.412543
6.085000	2.416094
6.086000	2.420291
6.087000	2.430298
6.088000	2.449021
6.089000	2.469680
6.090000	2.486143
6.091000	2.504866
6.092000	2.528431
6.093000	2.550382
6.094000	2.569105
6.095000	2.582340
6.096000	2.582986
6.097000	2.575561
6.098000	2.566523
6.099000	2.551673
6.100000	2.522944
6.101000	2.484852
6.102000	2.445147
6.103000	2.403505
6.104000	2.364768
6.105000	2.334424
6.106000	2.311182
6.107000	2.298269
6.108000	2.294719
6.109000	2.301820
6.110000	2.314410
6.111000	2.329582
6.112000	2.341848
6.113000	2.349596
6.114000	2.357343
6.115000	2.366705
6.116000	2.375420
6.117000	2.383813
6.118000	2.396726
6.119000	2.410284
6.120000	2.422873
6.121000	2.436431
6.122000	2.445793
6.123000	2.453540
6.124000	2.459996
6.125000	2.463870
6.126000	2.463224
6.127000	2.457091
6.128000	2.444501
6.129000	2.434817
6.130000	2.430298
6.131000	2.429652
6.132000	2.428361
6.133000	2.427715
6.134000	2.424164
6.135000	2.417708
6.136000	2.410929
6.137000	2.406087
6.138000	2.401568
6.139000	2.394466
6.140000	2.385750
6.141000	2.378971
6.142000	2.376389
6.143000	2.370256
6.144000	2.362508
6.145000	2.356375
6.146000	2.350241
6.147000	2.348305
6.148000	2.352501
6.149000	2.354438
6.150000	2.358634
6.151000	2.364445
6.152000	2.376066
6.153000	2.382199
6.154000	2.387687
6.155000	2.396403
6.156000	2.406733
6.157000	2.413189
6.158000	2.417708
6.159000	2.424164
6.160000	2.433849
6.161000	2.445147
6.162000	2.454831
6.163000	2.465484
6.164000	2.476136
6.165000	2.483884
6.166000	2.485498
6.167000	2.474522
6.168000	2.453540
6.169000	2.429329
6.170000	2.407056
6.171000	2.390592
6.172000	2.378649
6.173000	2.371547
6.174000	2.366705
6.175000	2.364122
6.176000	2.366059
6.177000	2.373806
6.178000	2.385105
6.179000	2.396726
6.180000	2.405119
6.181000	2.409961
6.182000	2.410284
6.183000	2.405764
6.184000	2.401891
6.185000	2.399631
6.186000	2.402214
6.187000	2.402214
6.188000	2.400599
6.189000	2.398985
6.190000	2.401891
6.191000	2.407701
6.192000	2.409961
6.193000	2.408670
6.194000	2.409638
6.195000	2.413835
6.196000	2.419322
6.197000	2.421259
6.198000	2.420291
6.199000	2.418354
6.200000	2.412543
6.201000	2.401891
6.202000	2.392529
6.203000	2.386719
6.204000	2.387042
6.205000	2.393498
6.206000	2.399308
6.207000	2.404473
6.208000	2.407056
6.209000	2.406733
6.210000	2.405119
6.211000	2.402859
6.212000	2.399631
6.213000	2.397694
6.214000	2.398340
6.215000	2.403828
6.216000	2.412543
6.217000	2.422873
6.218000	2.432235
6.219000	2.440628
6.220000	2.446438
6.221000	2.450957
6.222000	2.454508
6.223000	2.456768
6.224000	2.458382
6.225000	2.458382
6.226000	2.457736
6.227000	2.457091
6.228000	2.458382
6.229000	2.462579
6.230000	2.467743
6.231000	2.470649
6.232000	2.472908
6.233000	2.479687
6.234000	2.484207
6.235000	2.480979
6.236000	2.475491
6.237000	2.466452
6.238000	2.456122
6.239000	2.445470
6.240000	2.437722
6.241000	2.431912
6.242000	2.424810
6.243000	2.420291
6.244000	2.416094
6.245000	2.413835
6.246000	2.411575
6.247000	2.408992
6.248000	2.410284
6.249000	2.419322
6.250000	2.435463
6.251000	2.450957
6.252000	2.463224
6.253000	2.469680
6.254000	2.469357
6.255000	2.467098
6.256000	2.465161
6.257000	2.461610
6.258000	2.457091
6.259000	2.453540
6.260000	2.453217
6.261000	2.455800
6.262000	2.461287
6.263000	2.471294
6.264000	2.482915
6.265000	2.490663
6.266000	2.496150
6.267000	2.499701
6.268000	2.500347
6.269000	2.501638
6.270000	2.510031
6.271000	2.521007
6.272000	2.524880
6.273000	2.521975
6.274000	2.512291
6.275000	2.498410
6.276000	2.482915
6.277000	2.472263
6.278000	2.463870
6.279000	2.460964
6.280000	2.456445
6.281000	2.451926
6.282000	2.446761
6.283000	2.443210
6.284000	2.438045
6.285000	2.435785
6.286000	2.436108
6.287000	2.439336
6.288000	2.442242
6.289000	2.446115
6.290000	2.449666
6.291000	2.454508
6.292000	2.461287
6.293000	2.466775
6.294000	2.472908
6.295000	2.476782
6.296000	2.482915
6.297000	2.487435
6.298000	2.490986
6.299000	2.493568
6.300000	2.494214
6.301000	2.497119
6.302000	2.503252
6.303000	2.505512
6.304000	2.504221
6.305000	2.501961
6.306000	2.500024
6.307000	2.500347
6.308000	2.504866
6.309000	2.508417
6.310000	2.506803
6.311000	2.503575
6.312000	2.500024
6.313000	2.493568
